# Time	Amplitude (cm/s/s)
   0.000000	  -0.267897
   0.009766	  -0.431990
   0.019531	  -0.661611
   0.029297	  -0.904727
   0.039062	  -1.103802
   0.048828	  -1.215724
   0.058594	  -1.226460
   0.068359	  -1.155191
   0.078125	  -1.046526
   0.087891	  -0.953673
   0.097656	  -0.918713
   0.107422	  -0.957105
   0.117188	  -1.051978
   0.126953	  -1.160195
   0.136719	  -1.227910
   0.146484	  -1.209938
   0.156250	  -1.085981
   0.166016	  -0.867955
   0.175781	  -0.595980
   0.185547	  -0.324706
   0.195312	  -0.105107
   0.205078	   0.031617
   0.214844	   0.082315
   0.224609	   0.069681
   0.234375	   0.030808
   0.244141	   0.001174
   0.253906	   0.000316
   0.263672	   0.024647
   0.273438	   0.050030
   0.283203	   0.042903
   0.292969	  -0.024582
   0.302734	  -0.161521
   0.312500	  -0.352626
   0.322266	  -0.562471
   0.332031	  -0.748198
   0.341797	  -0.875902
   0.351562	  -0.934284
   0.361328	  -0.940024
   0.371094	  -0.932284
   0.380859	  -0.957869
   0.390625	  -1.052232
   0.400391	  -1.223325
   0.410156	  -1.444602
   0.419922	  -1.660341
   0.429688	  -1.802106
   0.439453	  -1.811039
   0.449219	  -1.658381
   0.458984	  -1.356992
   0.468750	  -0.959622
   0.478516	  -0.544208
   0.488281	  -0.191006
   0.498047	   0.040786
   0.507812	   0.129086
   0.517578	   0.092404
   0.527344	  -0.020060
   0.537109	  -0.147859
   0.546875	  -0.241135
   0.556641	  -0.277063
   0.566406	  -0.265247
   0.576172	  -0.240554
   0.585938	  -0.246557
   0.595703	  -0.316157
   0.605469	  -0.456912
   0.615234	  -0.646761
   0.625000	  -0.841797
   0.634766	  -0.993137
   0.644531	  -1.066383
   0.654297	  -1.056023
   0.664062	  -0.988919
   0.673828	  -0.915026
   0.683594	  -0.888339
   0.693359	  -0.944906
   0.703125	  -1.086168
   0.712891	  -1.274265
   0.722656	  -1.441838
   0.732422	  -1.513648
   0.742188	  -1.432931
   0.751953	  -1.183409
   0.761719	  -0.799028
   0.771484	  -0.357502
   0.781250	   0.040786
   0.791016	   0.301961
   0.800781	   0.366467
   0.810547	   0.226465
   0.820312	  -0.072809
   0.830078	  -0.448016
   0.839844	  -0.803878
   0.849609	  -1.061854
   0.859375	  -1.182024
   0.869141	  -1.171458
   0.878906	  -1.077094
   0.888672	  -0.966396
   0.898438	  -0.902961
   0.908203	  -0.925541
   0.917969	  -1.037216
   0.927734	  -1.207511
   0.937500	  -1.385552
   0.947266	  -1.518629
   0.957031	  -1.569063
   0.966797	  -1.523527
   0.976562	  -1.392254
   0.986328	  -1.199687
   0.996094	  -0.971335
   1.005859	  -0.722810
   1.015625	  -0.455733
   1.025391	  -0.162047
   1.035156	   0.165498
   1.044922	   0.521766
   1.054688	   0.882359
   1.064453	   1.205553
   1.074219	   1.443593
   1.083984	   1.559905
   1.093750	   1.545840
   1.103516	   1.430036
   1.113281	   1.275580
   1.123047	   1.164352
   1.132812	   1.172631
   1.142578	   1.345670
   1.152344	   1.679923
   1.162109	   2.119578
   1.171875	   2.569530
   1.181641	   2.921436
   1.191406	   3.084985
   1.201172	   3.014486
   1.210938	   2.722233
   1.220703	   2.274334
   1.230469	   1.770411
   1.240234	   1.313833
   1.250000	   0.982144
   1.259766	   0.807083
   1.269531	   0.770135
   1.279297	   0.814230
   1.289062	   0.866812
   1.298828	   0.865880
   1.308594	   0.780066
   1.318359	   0.616324
   1.328125	   0.413453
   1.337891	   0.224765
   1.347656	   0.096853
   1.357422	   0.052415
   1.367188	   0.083151
   1.376953	   0.154753
   1.386719	   0.221359
   1.396484	   0.243459
   1.406250	   0.202190
   1.416016	   0.104660
   1.425781	  -0.021358
   1.435547	  -0.140808
   1.445312	  -0.227075
   1.455078	  -0.273515
   1.464844	  -0.296002
   1.474609	  -0.325390
   1.484375	  -0.392937
   1.494141	  -0.514702
   1.503906	  -0.681570
   1.513672	  -0.859502
   1.523438	  -1.000674
   1.533203	  -1.061744
   1.542969	  -1.022427
   1.552734	  -0.896928
   1.562500	  -0.733092
   1.572266	  -0.598544
   1.582031	  -0.557988
   1.591797	  -0.649465
   1.601562	  -0.868275
   1.611328	  -1.164933
   1.621094	  -1.458850
   1.630859	  -1.663771
   1.640625	  -1.716686
   1.650391	  -1.600273
   1.660156	  -1.350878
   1.669922	  -1.048770
   1.679688	  -0.793493
   1.689453	  -0.672332
   1.699219	  -0.732452
   1.708984	  -0.966119
   1.718750	  -1.314056
   1.728516	  -1.685801
   1.738281	  -1.990113
   1.748047	  -2.165080
   1.757812	  -2.197717
   1.767578	  -2.126533
   1.777344	  -2.026440
   1.787109	  -1.981419
   1.796875	  -2.054460
   1.806641	  -2.265051
   1.816406	  -2.581683
   1.826172	  -2.931539
   1.835938	  -3.223612
   1.845703	  -3.377086
   1.855469	  -3.345337
   1.865234	  -3.127854
   1.875000	  -2.766924
   1.884766	  -2.331295
   1.894531	  -1.893394
   1.904297	  -1.508390
   1.914062	  -1.202063
   1.923828	  -0.970613
   1.933594	  -0.790840
   1.943359	  -0.635316
   1.953125	  -0.485659
   1.962891	  -0.338400
   1.972656	  -0.201438
   1.982422	  -0.083385
   1.992188	   0.018658
   2.001953	   0.126391
   2.011719	   0.278124
   2.021484	   0.516428
   2.031250	   0.869536
   2.041016	   1.333585
   2.050781	   1.863397
   2.060547	   2.377018
   2.070312	   2.774447
   2.080078	   2.965653
   2.089844	   2.899021
   2.099609	   2.580398
   2.109375	   2.075478
   2.119141	   1.493604
   2.128906	   0.957346
   2.138672	   0.567288
   2.148438	   0.373435
   2.158203	   0.362676
   2.167969	   0.466544
   2.177734	   0.586668
   2.187500	   0.629339
   2.197266	   0.537510
   2.207031	   0.309478
   2.216797	  -0.001859
   2.226562	  -0.308542
   2.236328	  -0.518788
   2.246094	  -0.568850
   2.255859	  -0.444431
   2.265625	  -0.184392
   2.275391	   0.134113
   2.285156	   0.423392
   2.294922	   0.615720
   2.304688	   0.685680
   2.314453	   0.656577
   2.324219	   0.589029
   2.333984	   0.556333
   2.343750	   0.615887
   2.353516	   0.787209
   2.363281	   1.044504
   2.373047	   1.326249
   2.382812	   1.557969
   2.392578	   1.679521
   2.402344	   1.666686
   2.412109	   1.539049
   2.421875	   1.351372
   2.431641	   1.171859
   2.441406	   1.055645
   2.451172	   1.023606
   2.460938	   1.054613
   2.470703	   1.094268
   2.480469	   1.076943
   2.490234	   0.952828
   2.500000	   0.709688
   2.509766	   0.380827
   2.519531	   0.035816
   2.529297	  -0.243059
   2.539062	  -0.390232
   2.548828	  -0.381382
   2.558594	  -0.243785
   2.568359	  -0.048269
   2.578125	   0.114849
   2.587891	   0.167507
   2.597656	   0.072062
   2.607422	  -0.154336
   2.617188	  -0.444546
   2.626953	  -0.704009
   2.636719	  -0.843292
   2.646484	  -0.809179
   2.656250	  -0.603318
   2.666016	  -0.281810
   2.675781	   0.064120
   2.685547	   0.339502
   2.695312	   0.477943
   2.705078	   0.463506
   2.714844	   0.334546
   2.724609	   0.168421
   2.734375	   0.052770
   2.744141	   0.053823
   2.753906	   0.193055
   2.763672	   0.440355
   2.773438	   0.725775
   2.783203	   0.965200
   2.792969	   1.090338
   2.802734	   1.072084
   2.812500	   0.928968
   2.822266	   0.718085
   2.832031	   0.512401
   2.841797	   0.373334
   2.851562	   0.329022
   2.861328	   0.366351
   2.871094	   0.439382
   2.880859	   0.490483
   2.890625	   0.475544
   2.900391	   0.383121
   2.910156	   0.239691
   2.919922	   0.098664
   2.929688	   0.017232
   2.939453	   0.030122
   2.949219	   0.130886
   2.958984	   0.268864
   2.968750	   0.364140
   2.978516	   0.335952
   2.988281	   0.134520
   2.998047	  -0.235624
   3.007812	  -0.710205
   3.017578	  -1.180943
   3.027344	  -1.528128
   3.037109	  -1.659337
   3.046875	  -1.540958
   3.056641	  -1.211189
   3.066406	  -0.769366
   3.076172	  -0.344642
   3.085938	  -0.054316
   3.095703	   0.034086
   3.105469	  -0.075991
   3.115234	  -0.312932
   3.125000	  -0.562726
   3.134766	  -0.708735
   3.144531	  -0.671639
   3.154297	  -0.435787
   3.164062	  -0.053065
   3.173828	   0.376601
   3.183594	   0.740796
   3.193359	   0.953312
   3.203125	   0.982253
   3.212891	   0.857799
   3.222656	   0.657392
   3.232422	   0.474290
   3.242188	   0.381365
   3.251953	   0.403552
   3.261719	   0.509007
   3.271484	   0.622008
   3.281250	   0.652566
   3.291016	   0.531588
   3.300781	   0.238404
   3.310547	  -0.189580
   3.320312	  -0.668724
   3.330078	  -1.098086
   3.339844	  -1.394679
   3.349609	  -1.521984
   3.359375	  -1.501115
   3.369141	  -1.400518
   3.378906	  -1.308088
   3.388672	  -1.296169
   3.398438	  -1.392632
   3.408203	  -1.569005
   3.417969	  -1.750358
   3.427734	  -1.843490
   3.437500	  -1.773090
   3.447266	  -1.512379
   3.457031	  -1.096631
   3.466797	  -0.614097
   3.476562	  -0.177217
   3.486328	   0.115720
   3.496094	   0.214610
   3.505859	   0.134812
   3.515625	  -0.048790
   3.525391	  -0.228985
   3.535156	  -0.304933
   3.544922	  -0.218370
   3.554688	   0.025865
   3.564453	   0.362451
   3.574219	   0.690388
   3.583984	   0.910833
   3.593750	   0.963991
   3.603516	   0.851366
   3.613281	   0.634990
   3.623047	   0.413766
   3.632812	   0.285500
   3.642578	   0.308679
   3.652344	   0.478268
   3.662109	   0.724884
   3.671875	   0.938160
   3.681641	   1.006279
   3.691406	   0.857551
   3.701172	   0.488986
   3.710938	  -0.028720
   3.720703	  -0.571963
   3.730469	  -1.003728
   3.740234	  -1.218046
   3.750000	  -1.173857
   3.759766	  -0.906583
   3.769531	  -0.513696
   3.779297	  -0.119901
   3.789062	   0.165294
   3.798828	   0.282374
   3.808594	   0.236888
   3.818359	   0.090193
   3.828125	  -0.069629
   3.837891	  -0.164909
   3.847656	  -0.159066
   3.857422	  -0.069068
   3.867188	   0.044840
   3.876953	   0.107700
   3.886719	   0.065048
   3.896484	  -0.089686
   3.906250	  -0.307155
   3.916016	  -0.497620
   3.925781	  -0.564923
   3.935547	  -0.446255
   3.945312	  -0.142192
   3.955078	   0.275572
   3.964844	   0.683377
   3.974609	   0.946206
   3.984375	   0.965888
   3.994141	   0.719445
   4.003906	   0.272934
   4.013672	  -0.235566
   4.023438	  -0.639217
   4.033203	  -0.797657
   4.042969	  -0.645131
   4.052734	  -0.214429
   4.062500	   0.372328
   4.072266	   0.943445
   4.082031	   1.334525
   4.091797	   1.442818
   4.101562	   1.260153
   4.111328	   0.873039
   4.121094	   0.430112
   4.130859	   0.088696
   4.140625	  -0.040372
   4.150391	   0.069980
   4.160156	   0.356740
   4.169922	   0.693212
   4.179688	   0.937979
   4.189453	   0.988126
   4.199219	   0.816981
   4.208984	   0.482475
   4.218750	   0.103236
   4.228516	  -0.188397
   4.238281	  -0.298537
   4.248047	  -0.209123
   4.257812	   0.014059
   4.267578	   0.246280
   4.277344	   0.352849
   4.287109	   0.243917
   4.296875	  -0.085785
   4.306641	  -0.548078
   4.316406	  -0.987965
   4.326172	  -1.237207
   4.335938	  -1.175980
   4.345703	  -0.780086
   4.355469	  -0.135866
   4.365234	   0.583829
   4.375000	   1.175178
   4.384766	   1.471502
   4.394531	   1.399992
   4.404297	   1.006805
   4.414062	   0.441274
   4.423828	  -0.095504
   4.433594	  -0.419682
   4.443359	  -0.426895
   4.453125	  -0.125756
   4.462891	   0.369004
   4.472656	   0.880778
   4.482422	   1.236212
   4.492188	   1.327272
   4.501953	   1.147587
   4.511719	   0.790066
   4.521484	   0.407245
   4.531250	   0.149759
   4.541016	   0.106524
   4.550781	   0.269614
   4.560547	   0.537534
   4.570312	   0.755994
   4.580078	   0.780879
   4.589844	   0.539248
   4.599609	   0.064399
   4.609375	  -0.509639
   4.619141	  -0.993675
   4.628906	  -1.213066
   4.638672	  -1.075869
   4.648438	  -0.613311
   4.658203	   0.024025
   4.667969	   0.614880
   4.677734	   0.944601
   4.687500	   0.883448
   4.697266	   0.436933
   4.707031	  -0.251447
   4.716797	  -0.947810
   4.726562	  -1.410024
   4.736328	  -1.475361
   4.746094	  -1.121713
   4.755859	  -0.479220
   4.765625	   0.213316
   4.775391	   0.692664
   4.785156	   0.766181
   4.794922	   0.382987
   4.804688	  -0.345419
   4.814453	  -1.183844
   4.824219	  -1.858427
   4.833984	  -2.157518
   4.843750	  -2.011229
   4.853516	  -1.519337
   4.863281	  -0.915558
   4.873047	  -0.479611
   4.882812	  -0.428398
   4.892578	  -0.826590
   4.902344	  -1.551217
   4.912109	  -2.326078
   4.921875	  -2.816412
   4.931641	  -2.751357
   4.941406	  -2.029903
   4.951172	  -0.770016
   4.960938	   0.720379
   4.970703	   2.044158
   4.980469	   2.854558
   4.990234	   2.984763
   5.000000	   2.519990
   5.009766	   1.782988
   5.019531	   1.233624
   5.029297	   1.313950
   5.039062	   2.290986
   5.048828	   4.152404
   5.058594	   6.593845
   5.068359	   9.105769
   5.078125	  11.133097
   5.087891	  12.254540
   5.097656	  12.320051
   5.107422	  11.497774
   5.117188	  10.212247
   5.126953	   8.993184
   5.136719	   8.285913
   5.146484	   8.289069
   5.156250	   8.876997
   5.166016	   9.635852
   5.175781	  10.003091
   5.185547	   9.463662
   5.195312	   7.735477
   5.205078	   4.879375
   5.214844	   1.294239
   5.224609	  -2.402394
   5.234375	  -5.567624
   5.244141	  -7.733358
   5.253906	  -8.743200
   5.263672	  -8.777744
   5.273438	  -8.259399
   5.283203	  -7.671298
   5.292969	  -7.356734
   5.302734	  -7.374240
   5.312500	  -7.465180
   5.322266	  -7.151138
   5.332031	  -5.931107
   5.341797	  -3.509983
   5.351562	   0.025721
   5.361328	   4.155242
   5.371094	   8.024854
   5.380859	  10.681394
   5.390625	  11.368644
   5.400391	   9.790737
   5.410156	   6.251735
   5.419922	   1.616310
   5.429688	  -2.907737
   5.439453	  -6.106509
   5.449219	  -7.116995
   5.458984	  -5.694274
   5.468750	  -2.303781
   5.478516	   1.994471
   5.488281	   5.839587
   5.498047	   7.956831
   5.507812	   7.524938
   5.517578	   4.416741
   5.527344	  -0.755320
   5.537109	  -6.798816
   5.546875	 -12.256335
   5.556641	 -15.783170
   5.566406	 -16.481387
   5.576172	 -14.102267
   5.585938	  -9.071974
   5.595703	  -2.348039
   5.605469	   4.839737
   5.615234	  11.284487
   5.625000	  16.054131
   5.634766	  18.643328
   5.644531	  19.004973
   5.654297	  17.476605
   5.664062	  14.641723
   5.673828	  11.173434
   5.683594	   7.698994
   5.693359	   4.705337
   5.703125	   2.486747
   5.712891	   1.124260
   5.722656	   0.485462
   5.732422	   0.240984
   5.742188	  -0.096054
   5.751953	  -1.096639
   5.761719	  -3.302731
   5.771484	  -7.083903
   5.781250	 -12.493011
   5.791016	 -19.165403
   5.800781	 -26.307980
   5.810547	 -32.808059
   5.820312	 -37.459406
   5.830078	 -39.262956
   5.839844	 -37.726145
   5.849609	 -33.070667
   5.859375	 -26.272031
   5.869141	 -18.895077
   5.878906	 -12.747254
   5.888672	  -9.429150
   5.898438	  -9.900560
   5.908203	 -14.186184
   5.917969	 -21.313336
   5.927734	 -29.512284
   5.937500	 -36.635424
   5.947266	 -40.686900
   5.957031	 -40.319795
   5.966797	 -35.164952
   5.976562	 -25.902766
   5.986328	 -14.062745
   5.996094	  -1.613289
   6.005859	   9.537920
   6.015625	  17.991461
   6.025391	  23.131864
   6.035156	  25.168148
   6.044922	  24.948705
   6.054688	  23.625850
   6.064453	  22.283944
   6.074219	  21.645643
   6.083984	  21.935333
   6.093750	  22.920897
   6.103516	  24.094969
   6.113281	  24.914800
   6.123047	  25.008947
   6.132812	  24.280910
   6.142578	  22.884963
   6.152344	  21.100386
   6.162109	  19.168232
   6.171875	  17.166279
   6.181641	  14.979202
   6.191406	  12.380034
   6.201172	   9.191228
   6.210938	   5.457528
   6.220703	   1.552385
   6.230469	  -1.840367
   6.240234	  -3.883661
   6.250000	  -3.844432
   6.259766	  -1.369575
   6.269531	   3.316910
   6.279297	   9.375612
   6.289062	  15.505389
   6.298828	  20.260442
   6.308594	  22.445940
   6.318359	  21.475570
   6.328125	  17.578716
   6.337891	  11.785173
   6.347656	   5.679817
   6.357422	   0.988567
   6.367188	  -0.891088
   6.376953	   0.717161
   6.386719	   5.564283
   6.396484	  12.519194
   6.406250	  19.848567
   6.416016	  25.656668
   6.425781	  28.366319
   6.435547	  27.114273
   6.445312	  21.961849
   6.455078	  13.874766
   6.464844	   4.488418
   6.474609	  -4.271834
   6.484375	 -10.615073
   6.494141	 -13.251900
   6.503906	 -11.626457
   6.513672	  -5.976342
   6.523438	   2.772576
   6.533203	  13.234009
   6.542969	  23.849881
   6.552734	  33.176074
   6.562500	  40.113721
   6.572266	  44.053968
   6.582031	  44.924345
   6.591797	  43.141372
   6.601562	  39.485402
   6.611328	  34.921104
   6.621094	  30.392334
   6.630859	  26.624467
   6.640625	  23.969685
   6.650391	  22.328712
   6.660156	  21.173082
   6.669922	  19.674091
   6.679688	  16.920083
   6.689453	  12.178063
   6.699219	   5.136819
   6.708984	  -3.935847
   6.718750	 -14.174930
   6.728516	 -24.260365
   6.738281	 -32.698328
   6.748047	 -38.179087
   6.757812	 -39.921118
   6.767578	 -37.907174
   6.777344	 -32.940848
   6.787109	 -26.497142
   6.796875	 -20.395786
   6.806641	 -16.375697
   6.816406	 -15.678248
   6.826172	 -18.746934
   6.835938	 -25.120829
   6.845703	 -33.547649
   6.855469	 -42.283983
   6.865234	 -49.502195
   6.875000	 -53.699055
   6.884766	 -54.006394
   6.894531	 -50.336115
   6.904297	 -43.339808
   6.914062	 -34.212345
   6.923828	 -24.404736
   6.933594	 -15.325354
   6.943359	  -8.098755
   6.953125	  -3.423823
   6.962891	  -1.538720
   6.972656	  -2.270899
   6.982422	  -5.134750
   6.992188	  -9.440070
   7.001953	 -14.387896
   7.011719	 -19.148514
   7.021484	 -22.930846
   7.031250	 -25.056601
   7.041016	 -25.045325
   7.050781	 -22.701683
   7.060547	 -18.181617
   7.070312	 -12.007255
   7.080078	  -5.006695
   7.089844	   1.826190
   7.099609	   7.530712
   7.109375	  11.391911
   7.119141	  13.109214
   7.128906	  12.869190
   7.138672	  11.293766
   7.148438	   9.270375
   7.158203	   7.706504
   7.167969	   7.276197
   7.177734	   8.231401
   7.187500	  10.333939
   7.197266	  12.929107
   7.207031	  15.139871
   7.216797	  16.124651
   7.226562	  15.323020
   7.236328	  12.618229
   7.246094	   8.371626
   7.255859	   3.323360
   7.265625	  -1.606420
   7.275391	  -5.553767
   7.285156	  -7.914812
   7.294922	  -8.461847
   7.304688	  -7.346640
   7.314453	  -5.002318
   7.324219	  -1.985227
   7.333984	   1.187341
   7.343750	   4.152407
   7.353516	   6.739652
   7.363281	   8.932459
   7.373047	  10.778446
   7.382812	  12.292121
   7.392578	  13.391783
   7.402344	  13.897114
   7.412109	  13.589243
   7.421875	  12.310389
   7.431641	  10.064378
   7.441406	   7.077452
   7.451172	   3.791439
   7.460938	   0.783716
   7.470703	  -1.367089
   7.480469	  -2.232276
   7.490234	  -1.657162
   7.500000	   0.178912
   7.509766	   2.785694
   7.519531	   5.464351
   7.529297	   7.464087
   7.539062	   8.154811
   7.548828	   7.175001
   7.558594	   4.521557
   7.568359	   0.563087
   7.578125	  -4.024658
   7.587891	  -8.386938
   7.597656	 -11.656450
   7.607422	 -13.127141
   7.617188	 -12.404094
   7.626953	  -9.501836
   7.636719	  -4.870422
   7.646484	   0.661336
   7.656250	   6.023172
   7.666016	  10.103772
   7.675781	  11.981373
   7.685547	  11.139442
   7.695312	   7.617481
   7.705078	   2.053321
   7.714844	  -4.407747
   7.724609	 -10.332339
   7.734375	 -14.308572
   7.744141	 -15.278733
   7.753906	 -12.813065
   7.763672	  -7.248722
   7.773438	   0.353979
   7.783203	   8.440962
   7.792969	  15.331932
   7.802734	  19.636787
   7.812500	  20.611727
   7.822266	  18.355682
   7.832031	  13.786584
   7.841797	   8.395623
   7.851562	   3.839960
   7.861328	   1.482269
   7.871094	   2.004196
   7.880859	   5.203564
   7.890625	  10.035817
   7.900391	  14.892129
   7.910156	  18.039418
   7.919922	  18.100783
   7.929688	  14.442638
   7.939453	   7.360842
   7.949219	  -1.984948
   7.958984	 -11.868371
   7.968750	 -20.439941
   7.978516	 -26.192812
   7.988281	 -28.323243
   7.998047	 -26.891480
   8.007812	 -22.747654
   8.017578	 -17.254113
   8.027344	 -11.890663
   8.037109	  -7.857168
   8.046875	  -5.782024
   8.056641	  -5.608775
   8.066406	  -6.678745
   8.076172	  -7.971920
   8.085938	  -8.427547
   8.095703	  -7.250617
   8.105469	  -4.122872
   8.115234	   0.728906
