# Time	Amplitude (cm/s/s)
   0.000000	   0.114701
   0.009766	   0.006422
   0.019531	  -0.062131
   0.029297	  -0.082177
   0.039062	  -0.055675
   0.048828	   0.006193
   0.058594	   0.086673
   0.068359	   0.167987
   0.078125	   0.235396
   0.087891	   0.279698
   0.097656	   0.297679
   0.107422	   0.290775
   0.117188	   0.262720
   0.126953	   0.217237
   0.136719	   0.156620
   0.146484	   0.081665
   0.156250	  -0.007238
   0.166016	  -0.108431
   0.175781	  -0.217599
   0.185547	  -0.327315
   0.195312	  -0.427844
   0.205078	  -0.508970
   0.214844	  -0.562228
   0.224609	  -0.582739
   0.234375	  -0.570002
   0.244141	  -0.527385
   0.253906	  -0.460548
   0.263672	  -0.375434
   0.273438	  -0.276613
   0.283203	  -0.166605
   0.292969	  -0.046411
   0.302734	   0.083006
   0.312500	   0.218974
   0.322266	   0.355894
   0.332031	   0.485193
   0.341797	   0.596659
   0.351562	   0.680823
   0.361328	   0.731630
   0.371094	   0.748439
   0.380859	   0.736584
   0.390625	   0.706171
   0.400391	   0.669368
   0.410156	   0.636988
   0.419922	   0.615422
   0.429688	   0.604854
   0.439453	   0.599348
   0.449219	   0.588715
   0.458984	   0.561564
   0.468750	   0.508559
   0.478516	   0.424883
   0.488281	   0.311273
   0.498047	   0.173451
   0.507812	   0.020394
   0.517578	  -0.137839
   0.527344	  -0.291879
   0.537109	  -0.433888
   0.546875	  -0.557363
   0.556641	  -0.656294
   0.566406	  -0.724339
   0.576172	  -0.754701
   0.585938	  -0.741076
   0.595703	  -0.679549
   0.605469	  -0.570838
   0.615234	  -0.421979
   0.625000	  -0.246618
   0.634766	  -0.063444
   0.644531	   0.107078
   0.654297	   0.246913
   0.664062	   0.344403
   0.673828	   0.396770
   0.683594	   0.410329
   0.693359	   0.398264
   0.703125	   0.376581
   0.712891	   0.359419
   0.722656	   0.355141
   0.732422	   0.364348
   0.742188	   0.380377
   0.751953	   0.392037
   0.761719	   0.387622
   0.771484	   0.358891
   0.781250	   0.303724
   0.791016	   0.226678
   0.800781	   0.137357
   0.810547	   0.047267
   0.820312	  -0.033737
   0.830078	  -0.100185
   0.839844	  -0.152046
   0.849609	  -0.193841
   0.859375	  -0.232245
   0.869141	  -0.273111
   0.878906	  -0.319008
   0.888672	  -0.368140
   0.898438	  -0.414989
   0.908203	  -0.452389
   0.917969	  -0.474238
   0.927734	  -0.477848
   0.937500	  -0.465084
   0.947266	  -0.441890
   0.957031	  -0.416372
   0.966797	  -0.396153
   0.976562	  -0.385885
   0.986328	  -0.385813
   0.996094	  -0.391814
   1.005859	  -0.396888
   1.015625	  -0.393517
   1.025391	  -0.376087
   1.035156	  -0.342542
   1.044922	  -0.294767
   1.054688	  -0.237643
   1.064453	  -0.177187
   1.074219	  -0.118464
   1.083984	  -0.064012
   1.093750	  -0.013282
   1.103516	   0.036776
   1.113281	   0.090248
   1.123047	   0.150460
   1.132812	   0.218467
   1.142578	   0.292271
   1.152344	   0.366971
   1.162109	   0.435675
   1.171875	   0.490847
   1.181641	   0.525672
   1.191406	   0.535117
   1.201172	   0.516585
   1.210938	   0.470218
   1.220703	   0.398992
   1.230469	   0.308741
   1.240234	   0.208070
   1.250000	   0.108000
   1.259766	   0.021098
   1.269531	  -0.040080
   1.279297	  -0.065165
   1.289062	  -0.048417
   1.298828	   0.009200
   1.308594	   0.099022
   1.318359	   0.205335
   1.328125	   0.307839
   1.337891	   0.385568
   1.347656	   0.421391
   1.357422	   0.405950
   1.367188	   0.339924
   1.376953	   0.233899
   1.386719	   0.105804
   1.396484	  -0.023450
   1.406250	  -0.134921
   1.416016	  -0.215812
   1.425781	  -0.261718
   1.435547	  -0.276411
   1.445312	  -0.269375
   1.455078	  -0.252009
   1.464844	  -0.233782
   1.474609	  -0.219583
   1.484375	  -0.209057
   1.494141	  -0.197994
   1.503906	  -0.181124
   1.513672	  -0.155192
   1.523438	  -0.121117
   1.533203	  -0.084373
   1.542969	  -0.053418
   1.552734	  -0.036681
   1.562500	  -0.039224
   1.572266	  -0.060301
   1.582031	  -0.092821
   1.591797	  -0.125052
   1.601562	  -0.144162
   1.611328	  -0.140532
   1.621094	  -0.111483
   1.630859	  -0.063167
   1.640625	  -0.009967
   1.650391	   0.028536
   1.660156	   0.032177
   1.669922	  -0.014885
   1.679688	  -0.120346
   1.689453	  -0.282033
   1.699219	  -0.488632
   1.708984	  -0.722510
   1.718750	  -0.963705
   1.728516	  -1.193899
   1.738281	  -1.399338
   1.748047	  -1.572107
   1.757812	  -1.709717
   1.767578	  -1.813496
   1.777344	  -1.886522
   1.787109	  -1.931871
   1.796875	  -1.951663
   1.806641	  -1.947004
   1.816406	  -1.918575
   1.826172	  -1.867399
   1.835938	  -1.795342
   1.845703	  -1.705087
   1.855469	  -1.599609
   1.865234	  -1.481433
   1.875000	  -1.352030
   1.884766	  -1.211691
   1.894531	  -1.059952
   1.904297	  -0.896442
   1.914062	  -0.721819
   1.923828	  -0.538414
   1.933594	  -0.350329
   1.943359	  -0.162957
   1.953125	   0.017880
   1.962891	   0.186823
   1.972656	   0.339561
   1.982422	   0.472914
   1.992188	   0.584483
   2.001953	   0.672146
   2.011719	   0.733753
   2.021484	   0.767345
   2.031250	   0.771930
   2.041016	   0.748604
   2.050781	   0.701533
   2.060547	   0.638265
   2.070312	   0.569016
   2.080078	   0.504883
   2.089844	   0.455400
   2.099609	   0.426131
   2.109375	   0.417140
   2.119141	   0.422934
   2.128906	   0.434081
   2.138672	   0.440100
   2.148438	   0.432779
   2.158203	   0.408846
   2.167969	   0.371059
   2.177734	   0.327277
   2.187500	   0.287719
   2.197266	   0.261257
   2.207031	   0.251984
   2.216797	   0.257243
   2.226562	   0.267889
   2.236328	   0.270815
   2.246094	   0.253015
   2.255859	   0.205907
   2.265625	   0.128471
   2.275391	   0.028132
   2.285156	  -0.081018
   2.294922	  -0.182172
   2.304688	  -0.260723
   2.314453	  -0.308600
   2.324219	  -0.326618
   2.333984	  -0.324066
   2.343750	  -0.315625
   2.353516	  -0.316573
   2.363281	  -0.337786
   2.373047	  -0.382107
   2.382812	  -0.443234
   2.392578	  -0.507466
   2.402344	  -0.557750
   2.412109	  -0.578765
   2.421875	  -0.561464
   2.431641	  -0.505700
   2.441406	  -0.420178
   2.451172	  -0.319826
   2.460938	  -0.221422
   2.470703	  -0.138853
   2.480469	  -0.079382
   2.490234	  -0.041988
   2.500000	  -0.018118
   2.509766	   0.005471
   2.519531	   0.042711
   2.529297	   0.104243
   2.539062	   0.194525
   2.548828	   0.310707
   2.558594	   0.443412
   2.568359	   0.579062
   2.578125	   0.703014
   2.587891	   0.802724
   2.597656	   0.870208
   2.607422	   0.903378
   2.617188	   0.906104
   2.626953	   0.887130
   2.636719	   0.858132
   2.646484	   0.831309
   2.656250	   0.816921
   2.666016	   0.821185
   2.675781	   0.844908
   2.685547	   0.883199
   2.695312	   0.926411
   2.705078	   0.962284
   2.714844	   0.978950
   2.724609	   0.968153
   2.734375	   0.927862
   2.744141	   0.863452
   2.753906	   0.786896
   2.763672	   0.713897
   2.773438	   0.659528
   2.783203	   0.633453
   2.792969	   0.636149
   2.802734	   0.657379
   2.812500	   0.677689
   2.822266	   0.672841
   2.832031	   0.620186
   2.841797	   0.505320
   2.851562	   0.327077
   2.861328	   0.099293
   2.871094	  -0.151412
   2.880859	  -0.391433
   2.890625	  -0.588113
   2.900391	  -0.717630
   2.910156	  -0.770660
   2.919922	  -0.754169
   2.929688	  -0.688864
   2.939453	  -0.603044
   2.949219	  -0.524687
   2.958984	  -0.474095
   2.968750	  -0.459194
   2.978516	  -0.474769
   2.988281	  -0.505653
   2.998047	  -0.532701
   3.007812	  -0.539549
   3.017578	  -0.517990
   3.027344	  -0.470328
   3.037109	  -0.408064
   3.046875	  -0.347510
   3.056641	  -0.303851
   3.066406	  -0.285673
   3.076172	  -0.291744
   3.085938	  -0.311077
   3.095703	  -0.326214
   3.105469	  -0.318655
   3.115234	  -0.274689
   3.125000	  -0.189801
   3.134766	  -0.070338
   3.144531	   0.068029
   3.154297	   0.204492
   3.164062	   0.318639
   3.173828	   0.395681
   3.183594	   0.429894
   3.193359	   0.425414
   3.203125	   0.394328
   3.212891	   0.352767
   3.222656	   0.316208
   3.232422	   0.295315
   3.242188	   0.293352
   3.251953	   0.305731
   3.261719	   0.321620
   3.271484	   0.327057
   3.281250	   0.308739
   3.291016	   0.257555
   3.300781	   0.171138
   3.310547	   0.054953
   3.320312	  -0.078244
   3.330078	  -0.210449
   3.339844	  -0.321587
   3.349609	  -0.393259
   3.359375	  -0.412395
   3.369141	  -0.374077
   3.378906	  -0.282872
   3.388672	  -0.152252
   3.398438	  -0.002002
   3.408203	   0.145955
   3.417969	   0.272482
   3.427734	   0.365676
   3.437500	   0.423658
   3.447266	   0.454769
   3.457031	   0.474937
   3.466797	   0.502743
   3.476562	   0.553499
   3.486328	   0.634034
   3.496094	   0.739851
   3.505859	   0.855667
   3.515625	   0.959416
   3.525391	   1.028636
   3.535156	   1.047382
   3.544922	   1.011476
   3.554688	   0.930326
   3.564453	   0.824527
   3.574219	   0.719796
   3.583984	   0.639005
   3.593750	   0.594775
   3.603516	   0.585033
   3.613281	   0.593110
   3.623047	   0.592527
   3.632812	   0.555142
   3.642578	   0.460210
   3.652344	   0.301517
   3.662109	   0.090343
   3.671875	  -0.146776
   3.681641	  -0.374841
   3.691406	  -0.559687
   3.701172	  -0.676954
   3.710938	  -0.718011
   3.720703	  -0.691158
   3.730469	  -0.617905
   3.740234	  -0.525750
   3.750000	  -0.439884
   3.759766	  -0.376509
   3.769531	  -0.339776
   3.779297	  -0.323015
   3.789062	  -0.313463
   3.798828	  -0.298501
   3.808594	  -0.271034
   3.818359	  -0.232062
   3.828125	  -0.189640
   3.837891	  -0.154830
   3.847656	  -0.136373
   3.857422	  -0.136318
   3.867188	  -0.148444
   3.876953	  -0.160255
   3.886719	  -0.157924
   3.896484	  -0.132370
   3.906250	  -0.084111
   3.916016	  -0.024873
   3.925781	   0.024947
   3.935547	   0.042386
   3.945312	   0.009619
   3.955078	  -0.079397
   3.964844	  -0.215778
   3.974609	  -0.377409
   3.984375	  -0.535181
   3.994141	  -0.661853
   4.003906	  -0.740624
   4.013672	  -0.770482
   4.023438	  -0.766349
   4.033203	  -0.753774
   4.042969	  -0.759741
   4.052734	  -0.802565
   4.062500	  -0.884224
   4.072266	  -0.987834
   4.082031	  -1.081301
   4.091797	  -1.126251
   4.101562	  -1.089575
   4.111328	  -0.954024
   4.121094	  -0.724541
   4.130859	  -0.428288
   4.140625	  -0.108287
   4.150391	   0.187493
   4.160156	   0.418368
   4.169922	   0.560941
   4.179688	   0.614064
   4.189453	   0.597546
   4.199219	   0.545251
   4.208984	   0.494864
   4.218750	   0.477404
   4.228516	   0.509436
   4.238281	   0.589923
   4.248047	   0.702151
   4.257812	   0.819665
   4.267578	   0.914130
   4.277344	   0.962709
   4.287109	   0.953007
   4.296875	   0.884591
   4.306641	   0.767218
   4.316406	   0.616816
   4.326172	   0.450722
   4.335938	   0.283628
   4.345703	   0.125167
   4.355469	  -0.020538
   4.365234	  -0.153706
   4.375000	  -0.276764
   4.384766	  -0.392037
   4.394531	  -0.499865
   4.404297	  -0.597512
   4.414062	  -0.679006
   4.423828	  -0.735907
   4.433594	  -0.758881
   4.443359	  -0.739953
   4.453125	  -0.675129
   4.462891	  -0.566919
   4.472656	  -0.426079
   4.482422	  -0.271832
   4.492188	  -0.129954
   4.501953	  -0.028610
   4.511719	   0.007532
   4.521484	  -0.036362
   4.531250	  -0.160253
   4.541016	  -0.347204
   4.550781	  -0.565539
   4.560547	  -0.775196
   4.570312	  -0.936999
   4.580078	  -1.022459
   4.589844	  -1.021235
   4.599609	  -0.943804
   4.609375	  -0.818172
   4.619141	  -0.681235
   4.628906	  -0.567164
   4.638672	  -0.496356
   4.648438	  -0.468519
   4.658203	  -0.462365
   4.667969	  -0.442363
   4.677734	  -0.370691
   4.687500	  -0.220711
   4.697266	   0.012417
   4.707031	   0.307663
   4.716797	   0.622269
   4.726562	   0.903164
   4.736328	   1.102220
   4.746094	   1.190529
   4.755859	   1.166991
   4.765625	   1.058242
   4.775391	   0.909689
   4.785156	   0.770402
   4.794922	   0.676729
   4.804688	   0.640066
   4.814453	   0.642992
   4.824219	   0.645300
   4.833984	   0.598163
   4.843750	   0.461925
   4.853516	   0.221618
   4.863281	  -0.105084
   4.873047	  -0.470438
   4.882812	  -0.809281
   4.892578	  -1.057998
   4.902344	  -1.173871
   4.912109	  -1.148605
   4.921875	  -1.011599
   4.931641	  -0.821701
   4.941406	  -0.649845
   4.951172	  -0.557879
   4.960938	  -0.580075
   4.970703	  -0.712966
   4.980469	  -0.916542
   4.990234	  -1.126265
   5.000000	  -1.272064
   5.009766	  -1.298445
   5.019531	  -1.179722
   5.029297	  -0.926108
   5.039062	  -0.579389
   5.048828	  -0.200169
   5.058594	   0.148951
   5.068359	   0.418970
   5.078125	   0.584420
   5.087891	   0.645401
   5.097656	   0.622156
   5.107422	   0.544976
   5.117188	   0.443367
   5.126953	   0.338129
   5.136719	   0.238514
   5.146484	   0.144507
   5.156250	   0.052401
   5.166016	  -0.039189
   5.175781	  -0.125598
   5.185547	  -0.196157
   5.195312	  -0.237851
   5.205078	  -0.240869
   5.214844	  -0.203560
   5.224609	  -0.134602
   5.234375	  -0.051293
   5.244141	   0.025494
   5.253906	   0.077833
   5.263672	   0.096288
   5.273438	   0.082352
   5.283203	   0.046916
   5.292969	   0.005432
   5.302734	  -0.028292
   5.312500	  -0.047159
   5.322266	  -0.052740
   5.332031	  -0.053352
   5.341797	  -0.059126
   5.351562	  -0.076175
   5.361328	  -0.102401
   5.371094	  -0.126897
   5.380859	  -0.133488
   5.390625	  -0.107251
   5.400391	  -0.041519
   5.410156	   0.057516
   5.419922	   0.170743
   5.429688	   0.271148
   5.439453	   0.332472
   5.449219	   0.338527
   5.458984	   0.289723
   5.468750	   0.204104
   5.478516	   0.112082
   5.488281	   0.046310
   5.498047	   0.030062
   5.507812	   0.068239
   5.517578	   0.144445
   5.527344	   0.225602
   5.537109	   0.272958
   5.546875	   0.255978
   5.556641	   0.164405
   5.566406	   0.014137
   5.576172	  -0.155490
   5.585938	  -0.292618
   5.595703	  -0.348716
   5.605469	  -0.294355
   5.615234	  -0.129697
   5.625000	   0.113862
   5.634766	   0.381663
   5.644531	   0.610988
   5.654297	   0.748750
   5.664062	   0.766149
   5.673828	   0.665760
   5.683594	   0.479064
   5.693359	   0.255523
   5.703125	   0.047003
   5.712891	  -0.107319
   5.722656	  -0.190809
   5.732422	  -0.211235
   5.742188	  -0.194652
   5.751953	  -0.174022
   5.761719	  -0.176852
   5.771484	  -0.216165
   5.781250	  -0.287651
   5.791016	  -0.373406
   5.800781	  -0.450316
   5.810547	  -0.499513
   5.820312	  -0.513251
   5.830078	  -0.496694
   5.839844	  -0.464291
   5.849609	  -0.432481
   5.859375	  -0.411946
   5.869141	  -0.402632
   5.878906	  -0.393636
   5.888672	  -0.367991
   5.898438	  -0.310398
   5.908203	  -0.214693
   5.917969	  -0.087909
   5.927734	   0.050901
   5.937500	   0.176820
   5.947266	   0.267896
   5.957031	   0.313168
   5.966797	   0.316570
   5.976562	   0.294942
   5.986328	   0.270645
   5.996094	   0.261513
   6.005859	   0.272112
   6.015625	   0.290019
   6.025391	   0.289085
   6.035156	   0.239032
   6.044922	   0.118160
   6.054688	  -0.075542
   6.064453	  -0.319357
   6.074219	  -0.569459
   6.083984	  -0.772676
   6.093750	  -0.882889
   6.103516	  -0.876534
   6.113281	  -0.761656
   6.123047	  -0.576879
   6.132812	  -0.380059
   6.142578	  -0.229997
   6.152344	  -0.167246
   6.162109	  -0.200582
   6.171875	  -0.304059
   6.181641	  -0.425987
   6.191406	  -0.507085
   6.201172	  -0.501745
   6.210938	  -0.395037
   6.220703	  -0.209399
   6.230469	   0.001646
   6.240234	   0.170904
   6.250000	   0.240274
   6.259766	   0.181051
   6.269531	   0.004626
   6.279297	  -0.240385
   6.289062	  -0.483915
   6.298828	  -0.657924
   6.308594	  -0.719631
   6.318359	  -0.666469
   6.328125	  -0.537476
   6.337891	  -0.400464
   6.347656	  -0.329224
   6.357422	  -0.378482
   6.367188	  -0.565176
   6.376953	  -0.862423
   6.386719	  -1.208151
   6.396484	  -1.525247
   6.406250	  -1.746040
   6.416016	  -1.832481
   6.425781	  -1.784993
   6.435547	  -1.637096
   6.445312	  -1.438161
   6.455078	  -1.231004
   6.464844	  -1.032998
   6.474609	  -0.828104
   6.484375	  -0.573114
   6.494141	  -0.215907
   6.503906	   0.281363
   6.513672	   0.923645
   6.523438	   1.677341
   6.533203	   2.481615
   6.542969	   3.274307
   6.552734	   4.024087
   6.562500	   4.756933
   6.572266	   5.565508
   6.582031	   6.594675
   6.591797	   8.003929
   6.601562	   9.915654
   6.611328	  12.364035
   6.621094	  15.261044
   6.630859	  18.392360
   6.640625	  21.448002
   6.650391	  24.082323
   6.660156	  25.988737
   6.669922	  26.969154
   6.679688	  26.978421
   6.689453	  26.130322
   6.699219	  24.662167
   6.708984	  22.866798
   6.718750	  21.010445
   6.728516	  19.259405
   6.738281	  17.636519
   6.748047	  16.020361
   6.757812	  14.188112
   6.767578	  11.890683
   6.777344	   8.939236
   6.787109	   5.278634
   6.796875	   1.026458
   6.806641	  -3.534638
   6.816406	  -8.010874
   6.826172	 -11.984580
   6.835938	 -15.112438
   6.845703	 -17.208999
   6.855469	 -18.293132
   6.865234	 -18.584245
   6.875000	 -18.447870
   6.884766	 -18.303092
   6.894531	 -18.514206
   6.904297	 -19.293302
   6.914062	 -20.638225
   6.923828	 -22.322086
   6.933594	 -23.938198
   6.943359	 -24.990946
   6.953125	 -25.011982
   6.962891	 -23.674731
   6.972656	 -20.880262
   6.982422	 -16.794007
   6.992188	 -11.824145
   7.001953	  -6.546113
   7.011719	  -1.590339
   7.021484	   2.481068
   7.031250	   5.280459
   7.041016	   6.659749
   7.050781	   6.720753
   7.060547	   5.770528
   7.070312	   4.234918
   7.080078	   2.553472
   7.089844	   1.082740
   7.099609	   0.031710
   7.109375	  -0.556401
   7.119141	  -0.774975
   7.128906	  -0.789671
   7.138672	  -0.760702
   7.148438	  -0.776527
   7.158203	  -0.819557
   7.167969	  -0.774009
   7.177734	  -0.472651
   7.187500	   0.233368
   7.197266	   1.405056
   7.207031	   2.970323
   7.216797	   4.719674
   7.226562	   6.346943
   7.236328	   7.524845
   7.246094	   7.993632
   7.255859	   7.635993
   7.265625	   6.514600
   7.275391	   4.859274
   7.285156	   3.005887
   7.294922	   1.303889
   7.304688	   0.019414
   7.314453	  -0.737095
   7.324219	  -1.036693
   7.333984	  -1.102852
   7.343750	  -1.235676
   7.353516	  -1.711828
   7.363281	  -2.690118
   7.373047	  -4.151167
   7.382812	  -5.889440
   7.392578	  -7.560242
   7.402344	  -8.767893
   7.412109	  -9.169171
   7.421875	  -8.561993
   7.431641	  -6.934261
   7.441406	  -4.460225
   7.451172	  -1.447634
   7.460938	   1.746656
   7.470703	   4.806400
   7.480469	   7.524572
   7.490234	   9.832360
   7.500000	  11.783281
   7.509766	  13.501401
   7.519531	  15.113337
   7.529297	  16.687646
   7.539062	  18.201356
   7.548828	  19.543419
   7.558594	  20.552115
   7.568359	  21.072288
   7.578125	  21.012162
   7.587891	  20.380251
   7.597656	  19.289953
   7.607422	  17.930257
   7.617188	  16.511961
   7.626953	  15.206332
   7.636719	  14.094966
   7.646484	  13.145560
   7.656250	  12.219872
   7.666016	  11.110394
   7.675781	   9.594338
   7.685547	   7.489750
   7.695312	   4.699707
   7.705078	   1.235714
   7.714844	  -2.781645
   7.724609	  -7.140525
   7.734375	 -11.566428
   7.744141	 -15.753921
   7.753906	 -19.396658
   7.763672	 -22.214754
   7.773438	 -23.981356
   7.783203	 -24.550561
   7.792969	 -23.886271
   7.802734	 -22.087311
   7.812500	 -19.400197
   7.822266	 -16.209566
   7.832031	 -12.998943
   7.841797	 -10.281265
   7.851562	  -8.507803
   7.861328	  -7.972954
   7.871094	  -8.737675
   7.880859	 -10.593676
   7.890625	 -13.083136
   7.900391	 -15.576060
   7.910156	 -17.392606
   7.919922	 -17.944954
   7.929688	 -16.866400
   7.939453	 -14.096676
   7.949219	  -9.902107
   7.958984	  -4.824754
   7.968750	   0.427916
   7.978516	   5.126753
   7.988281	   8.664145
   7.998047	  10.663901
   8.007812	  11.034305
   8.017578	   9.955911
   8.027344	   7.812077
   8.037109	   5.083777
   8.046875	   2.237274
   8.056641	  -0.367529
   8.066406	  -2.528179
   8.076172	  -4.202764
   8.085938	  -5.470781
   8.095703	  -6.468023
   8.105469	  -7.316847
   8.115234	  -8.072036
