# Time	Amplitude (cm/s/s)
   0.000000	  -0.269852
   0.009766	  -0.259660
   0.019531	  -0.234000
   0.029297	  -0.201835
   0.039062	  -0.172827
   0.048828	  -0.154438
   0.058594	  -0.149848
   0.068359	  -0.157289
   0.078125	  -0.170992
   0.087891	  -0.183373
   0.097656	  -0.187678
   0.107422	  -0.180172
   0.117188	  -0.161111
   0.126953	  -0.134209
   0.136719	  -0.104831
   0.146484	  -0.077613
   0.156250	  -0.054446
   0.166016	  -0.033606
   0.175781	  -0.010426
   0.185547	   0.020695
   0.195312	   0.063646
   0.205078	   0.118328
   0.214844	   0.179639
   0.224609	   0.238243
   0.234375	   0.282988
   0.244141	   0.304262
   0.253906	   0.297179
   0.263672	   0.263484
   0.273438	   0.211459
   0.283203	   0.153747
   0.292969	   0.103724
   0.302734	   0.071548
   0.312500	   0.061182
   0.322266	   0.069361
   0.332031	   0.086893
   0.341797	   0.101868
   0.351562	   0.103772
   0.361328	   0.087135
   0.371094	   0.053545
   0.380859	   0.011353
   0.390625	  -0.026833
   0.400391	  -0.048042
   0.410156	  -0.042973
   0.419922	  -0.008876
   0.429688	   0.049608
   0.439453	   0.121855
   0.449219	   0.194397
   0.458984	   0.254740
   0.468750	   0.294630
   0.478516	   0.311796
   0.488281	   0.309717
   0.498047	   0.295676
   0.507812	   0.277866
   0.517578	   0.262592
   0.527344	   0.252511
   0.537109	   0.246387
   0.546875	   0.240317
   0.556641	   0.229828
   0.566406	   0.212018
   0.576172	   0.186933
   0.585938	   0.157716
   0.595703	   0.129558
   0.605469	   0.107908
   0.615234	   0.096659
   0.625000	   0.097000
   0.634766	   0.107319
   0.644531	   0.124134
   0.654297	   0.143626
   0.664062	   0.163144
   0.673828	   0.182060
   0.683594	   0.201680
   0.693359	   0.224250
   0.703125	   0.251513
   0.712891	   0.283409
   0.722656	   0.317484
   0.732422	   0.349275
   0.742188	   0.373552
   0.751953	   0.385955
   0.761719	   0.384385
   0.771484	   0.369605
   0.781250	   0.344796
   0.791016	   0.314215
   0.800781	   0.281468
   0.810547	   0.248056
   0.820312	   0.212785
   0.830078	   0.172280
   0.839844	   0.122452
   0.849609	   0.060368
   0.859375	  -0.014179
   0.869141	  -0.098032
   0.878906	  -0.185225
   0.888672	  -0.268572
   0.898438	  -0.341720
   0.908203	  -0.400908
   0.917969	  -0.445749
   0.927734	  -0.478756
   0.937500	  -0.503743
   0.947266	  -0.523734
   0.957031	  -0.539180
   0.966797	  -0.547232
   0.976562	  -0.542411
   0.986328	  -0.518534
   0.996094	  -0.471225
   1.005859	  -0.400106
   1.015625	  -0.309832
   1.025391	  -0.209481
   1.035156	  -0.110423
   1.044922	  -0.023320
   1.054688	   0.044753
   1.064453	   0.092078
   1.074219	   0.122331
   1.083984	   0.142872
   1.093750	   0.161867
   1.103516	   0.185253
   1.113281	   0.214611
   1.123047	   0.246699
   1.132812	   0.274799
   1.142578	   0.291380
   1.152344	   0.291108
   1.162109	   0.273069
   1.171875	   0.241396
   1.181641	   0.204001
   1.191406	   0.169866
   1.201172	   0.145850
   1.210938	   0.134180
   1.220703	   0.131579
   1.230469	   0.130417
   1.240234	   0.121543
   1.250000	   0.097838
   1.259766	   0.057241
   1.269531	   0.004153
   1.279297	  -0.051362
   1.289062	  -0.096376
   1.298828	  -0.119027
   1.308594	  -0.112308
   1.318359	  -0.076438
   1.328125	  -0.019058
   1.337891	   0.046834
   1.347656	   0.106514
   1.357422	   0.147545
   1.367188	   0.162907
   1.376953	   0.152285
   1.386719	   0.121241
   1.396484	   0.078688
   1.406250	   0.033640
   1.416016	  -0.007599
   1.425781	  -0.042903
   1.435547	  -0.074046
   1.445312	  -0.104972
   1.455078	  -0.139394
   1.464844	  -0.178722
   1.474609	  -0.221116
   1.484375	  -0.262009
   1.494141	  -0.295807
   1.503906	  -0.318045
   1.513672	  -0.327070
   1.523438	  -0.324542
   1.533203	  -0.314497
   1.542969	  -0.301341
   1.552734	  -0.287578
   1.562500	  -0.272242
   1.572266	  -0.250766
   1.582031	  -0.216505
   1.591797	  -0.163480
   1.601562	  -0.089398
   1.611328	   0.002168
   1.621094	   0.101352
   1.630859	   0.193622
   1.640625	   0.263087
   1.650391	   0.296476
   1.660156	   0.286498
   1.669922	   0.233496
   1.679688	   0.144820
   1.689453	   0.032149
   1.699219	  -0.092320
   1.708984	  -0.219516
   1.718750	  -0.345710
   1.728516	  -0.472577
   1.738281	  -0.605097
   1.748047	  -0.748095
   1.757812	  -0.902684
   1.767578	  -1.063922
   1.777344	  -1.220611
   1.787109	  -1.357388
   1.796875	  -1.458491
   1.806641	  -1.511989
   1.816406	  -1.513085
   1.826172	  -1.465411
   1.835938	  -1.379897
   1.845703	  -1.271568
   1.855469	  -1.155336
   1.865234	  -1.042076
   1.875000	  -0.936201
   1.884766	  -0.835371
   1.894531	  -0.732278
   1.904297	  -0.617792
   1.914062	  -0.484378
   1.923828	  -0.328732
   1.933594	  -0.152915
   1.943359	   0.036126
   1.953125	   0.228244
   1.962891	   0.412250
   1.972656	   0.577767
   1.982422	   0.716306
   1.992188	   0.821500
   2.001953	   0.888817
   2.011719	   0.915274
   2.021484	   0.899594
   2.031250	   0.842919
   2.041016	   0.749820
   2.050781	   0.629043
   2.060547	   0.493356
   2.070312	   0.358152
   2.080078	   0.238860
   2.089844	   0.147787
   2.099609	   0.091310
   2.109375	   0.068409
   2.119141	   0.071138
   2.128906	   0.087091
   2.138672	   0.103171
   2.148438	   0.109540
   2.158203	   0.102447
   2.167969	   0.084993
   2.177734	   0.065557
   2.187500	   0.054374
   2.197266	   0.059454
   2.207031	   0.083253
   2.216797	   0.121276
   2.226562	   0.163157
   2.236328	   0.195859
   2.246094	   0.207923
   2.255859	   0.193261
   2.265625	   0.153183
   2.275391	   0.095911
   2.285156	   0.033760
   2.294922	  -0.021019
   2.304688	  -0.060222
   2.314453	  -0.082083
   2.324219	  -0.091169
   2.333984	  -0.095835
   2.343750	  -0.104177
   2.353516	  -0.120006
   2.363281	  -0.140414
   2.373047	  -0.155962
   2.382812	  -0.153565
   2.392578	  -0.121167
   2.402344	  -0.052577
   2.412109	   0.049306
   2.421875	   0.172156
   2.431641	   0.297080
   2.441406	   0.403856
   2.451172	   0.476851
   2.460938	   0.509624
   2.470703	   0.506564
   2.480469	   0.480908
   2.490234	   0.449696
   2.500000	   0.427312
   2.509766	   0.419762
   2.519531	   0.421719
   2.529297	   0.417435
   2.539062	   0.385376
   2.548828	   0.305175
   2.558594	   0.164700
   2.568359	  -0.035084
   2.578125	  -0.279079
   2.587891	  -0.541267
   2.597656	  -0.791244
   2.607422	  -1.002081
   2.617188	  -1.157124
   2.626953	  -1.253668
   2.636719	  -1.302497
   2.646484	  -1.323537
   2.656250	  -1.339094
   2.666016	  -1.366817
   2.675781	  -1.414519
   2.685547	  -1.478308
   2.695312	  -1.544371
   2.705078	  -1.593606
   2.714844	  -1.607497
   2.724609	  -1.573349
   2.734375	  -1.487378
   2.744141	  -1.354965
   2.753906	  -1.188321
   2.763672	  -1.002608
   2.773438	  -0.811918
   2.783203	  -0.626369
   2.792969	  -0.451043
   2.802734	  -0.286777
   2.812500	  -0.132177
   2.822266	   0.014077
   2.832031	   0.151549
   2.841797	   0.277516
   2.851562	   0.387587
   2.861328	   0.477069
   2.871094	   0.542400
   2.880859	   0.582078
   2.890625	   0.596780
   2.900391	   0.588767
   2.910156	   0.560949
   2.919922	   0.516090
   2.929688	   0.456503
   2.939453	   0.384304
   2.949219	   0.301972
   2.958984	   0.212836
   2.968750	   0.121081
   2.978516	   0.031157
   2.988281	  -0.053247
   2.998047	  -0.130207
   3.007812	  -0.200025
   3.017578	  -0.264795
   3.027344	  -0.327069
   3.037109	  -0.388055
   3.046875	  -0.446071
   3.056641	  -0.495978
   3.066406	  -0.530062
   3.076172	  -0.540269
   3.085938	  -0.521176
   3.095703	  -0.472638
   3.105469	  -0.401061
   3.115234	  -0.318594
   3.125000	  -0.240245
   3.134766	  -0.179662
   3.144531	  -0.144922
   3.154297	  -0.135779
   3.164062	  -0.143470
   3.173828	  -0.153354
   3.183594	  -0.149697
   3.193359	  -0.121133
   3.203125	  -0.064956
   3.212891	   0.011281
   3.222656	   0.091585
   3.232422	   0.156336
   3.242188	   0.188650
   3.251953	   0.180234
   3.261719	   0.134777
   3.271484	   0.067633
   3.281250	   0.001782
   3.291016	  -0.038769
   3.300781	  -0.036068
   3.310547	   0.016431
   3.320312	   0.111964
   3.330078	   0.232549
   3.339844	   0.354359
   3.349609	   0.454583
   3.359375	   0.517544
   3.369141	   0.538171
   3.378906	   0.521846
   3.388672	   0.480929
   3.398438	   0.429395
   3.408203	   0.377574
   3.417969	   0.328923
   3.427734	   0.279889
   3.437500	   0.222786
   3.447266	   0.150471
   3.457031	   0.060917
   3.466797	  -0.040181
   3.476562	  -0.139904
   3.486328	  -0.221709
   3.496094	  -0.270937
   3.505859	  -0.280291
   3.515625	  -0.253249
   3.525391	  -0.204040
   3.535156	  -0.153993
   3.544922	  -0.125284
   3.554688	  -0.134086
   3.564453	  -0.185345
   3.574219	  -0.270917
   3.583984	  -0.371687
   3.593750	  -0.463020
   3.603516	  -0.521777
   3.613281	  -0.532675
   3.623047	  -0.492065
   3.632812	  -0.408075
   3.642578	  -0.297327
   3.652344	  -0.179528
   3.662109	  -0.071841
   3.671875	   0.015136
   3.681641	   0.078658
   3.691406	   0.122323
   3.701172	   0.152710
   3.710938	   0.175703
   3.720703	   0.194019
   3.730469	   0.206856
   3.740234	   0.211643
   3.750000	   0.206967
   3.759766	   0.195231
   3.769531	   0.183697
   3.779297	   0.183175
   3.789062	   0.204616
   3.798828	   0.254754
   3.808594	   0.332463
   3.818359	   0.427370
   3.828125	   0.521549
   3.837891	   0.594035
   3.847656	   0.626859
   3.857422	   0.610644
   3.867188	   0.547852
   3.876953	   0.452474
   3.886719	   0.346105
   3.896484	   0.251581
   3.906250	   0.186183
   3.916016	   0.156589
   3.925781	   0.157231
   3.935547	   0.172538
   3.945312	   0.182327
   3.955078	   0.168538
   3.964844	   0.121120
   3.974609	   0.041209
   3.984375	  -0.059335
   3.994141	  -0.161710
   4.003906	  -0.245906
   4.013672	  -0.296430
   4.023438	  -0.306204
   4.033203	  -0.277541
   4.042969	  -0.220160
   4.052734	  -0.147253
   4.062500	  -0.071154
   4.072266	  -0.000205
   4.082031	   0.062214
   4.091797	   0.116406
   4.101562	   0.163663
   4.111328	   0.203497
   4.121094	   0.232114
   4.130859	   0.242908
   4.140625	   0.228870
   4.150391	   0.185982
   4.160156	   0.116208
   4.169922	   0.028720
   4.179688	  -0.061341
   4.189453	  -0.136419
   4.199219	  -0.181351
   4.208984	  -0.187841
   4.218750	  -0.157072
   4.228516	  -0.099497
   4.238281	  -0.031820
   4.248047	   0.027917
   4.257812	   0.065526
   4.267578	   0.074516
   4.277344	   0.057412
   4.287109	   0.024256
   4.296875	  -0.011039
   4.306641	  -0.035160
   4.316406	  -0.039159
   4.326172	  -0.020364
   4.335938	   0.017964
   4.345703	   0.068814
   4.355469	   0.124367
   4.365234	   0.178493
   4.375000	   0.227885
   4.384766	   0.271568
   4.394531	   0.309273
   4.404297	   0.339609
   4.414062	   0.359083
   4.423828	   0.362574
   4.433594	   0.345225
   4.443359	   0.305002
   4.453125	   0.244776
   4.462891	   0.172857
   4.472656	   0.101443
   4.482422	   0.043295
   4.492188	   0.007684
   4.501953	  -0.002882
   4.511719	   0.006179
   4.521484	   0.023124
   4.531250	   0.033912
   4.541016	   0.027332
   4.550781	  -0.000573
   4.560547	  -0.044513
   4.570312	  -0.091309
   4.580078	  -0.124340
   4.589844	  -0.129662
   4.599609	  -0.101652
   4.609375	  -0.046053
   4.619141	   0.020897
   4.628906	   0.077237
   4.638672	   0.102520
   4.648438	   0.085138
   4.658203	   0.027124
   4.667969	  -0.055384
   4.677734	  -0.136464
   4.687500	  -0.188286
   4.697266	  -0.190055
   4.707031	  -0.135063
   4.716797	  -0.033405
   4.726562	   0.090656
   4.736328	   0.205944
   4.746094	   0.283928
   4.755859	   0.307466
   4.765625	   0.275852
   4.775391	   0.204515
   4.785156	   0.119515
   4.794922	   0.048722
   4.804688	   0.012678
   4.814453	   0.018227
   4.824219	   0.056993
   4.833984	   0.109134
   4.843750	   0.150940
   4.853516	   0.163558
   4.863281	   0.139749
   4.873047	   0.086345
   4.882812	   0.021575
   4.892578	  -0.031713
   4.902344	  -0.054495
   4.912109	  -0.038643
   4.921875	   0.009885
   4.931641	   0.072894
   4.941406	   0.126164
   4.951172	   0.147867
   4.960938	   0.126214
   4.970703	   0.063678
   4.980469	  -0.023678
   4.990234	  -0.111496
   5.000000	  -0.175175
   5.009766	  -0.197904
   5.019531	  -0.175923
   5.029297	  -0.119287
   5.039062	  -0.048022
   5.048828	   0.014883
   5.058594	   0.051117
   5.068359	   0.052674
   5.078125	   0.023644
   5.087891	  -0.022271
   5.097656	  -0.067388
   5.107422	  -0.096648
   5.117188	  -0.102765
   5.126953	  -0.088135
   5.136719	  -0.062994
   5.146484	  -0.040723
   5.156250	  -0.032225
   5.166016	  -0.041585
   5.175781	  -0.064633
   5.185547	  -0.090887
   5.195312	  -0.108003
   5.205078	  -0.106908
   5.214844	  -0.085526
   5.224609	  -0.049615
   5.234375	  -0.010335
   5.244141	   0.020491
   5.253906	   0.035530
   5.263672	   0.035426
   5.273438	   0.029113
   5.283203	   0.030682
   5.292969	   0.053873
   5.302734	   0.106232
   5.312500	   0.185213
   5.322266	   0.277848
   5.332031	   0.364319
   5.341797	   0.424318
   5.351562	   0.443998
   5.361328	   0.420986
   5.371094	   0.365588
   5.380859	   0.297627
   5.390625	   0.239941
   5.400391	   0.210773
   5.410156	   0.217759
   5.419922	   0.255634
   5.429688	   0.308477
   5.439453	   0.355668
   5.449219	   0.379364
   5.458984	   0.370762
   5.468750	   0.332850
   5.478516	   0.278650
   5.488281	   0.225632
   5.498047	   0.188457
   5.507812	   0.172819
   5.517578	   0.172828
   5.527344	   0.173047
   5.537109	   0.154542
   5.546875	   0.102777
   5.556641	   0.014351
   5.566406	  -0.100071
   5.576172	  -0.217982
   5.585938	  -0.311876
   5.595703	  -0.358473
   5.605469	  -0.347050
   5.615234	  -0.283856
   5.625000	  -0.190823
   5.634766	  -0.098801
   5.644531	  -0.037485
   5.654297	  -0.025440
   5.664062	  -0.063690
   5.673828	  -0.135155
   5.683594	  -0.210221
   5.693359	  -0.256617
   5.703125	  -0.250243
   5.712891	  -0.183264
   5.722656	  -0.066736
   5.732422	   0.073082
   5.742188	   0.203354
   5.751953	   0.295197
   5.761719	   0.332449
   5.771484	   0.315722
   5.781250	   0.260529
   5.791016	   0.190415
   5.800781	   0.127796
   5.810547	   0.085953
   5.820312	   0.065114
   5.830078	   0.053952
   5.839844	   0.035731
   5.849609	  -0.003426
   5.859375	  -0.067480
   5.869141	  -0.147516
   5.878906	  -0.224171
   5.888672	  -0.274645
   5.898438	  -0.281681
   5.908203	  -0.241009
   5.917969	  -0.164235
   5.927734	  -0.075787
   5.937500	  -0.004728
   5.947266	   0.025701
   5.957031	   0.007006
   5.966797	  -0.050622
   5.976562	  -0.121094
   5.986328	  -0.171254
   5.996094	  -0.172811
   6.005859	  -0.113194
   6.015625	  -0.001314
   6.025391	   0.134040
   6.035156	   0.252913
   6.044922	   0.317173
   6.054688	   0.303311
   6.064453	   0.210562
   6.074219	   0.061358
   6.083984	  -0.106203
   6.093750	  -0.251360
   6.103516	  -0.344695
   6.113281	  -0.378202
   6.123047	  -0.367835
   6.132812	  -0.347535
   6.142578	  -0.356758
   6.152344	  -0.425865
   6.162109	  -0.564516
   6.171875	  -0.757252
   6.181641	  -0.967877
   6.191406	  -1.151205
   6.201172	  -1.268079
   6.210938	  -1.298411
   6.220703	  -1.247649
   6.230469	  -1.144430
   6.240234	  -1.030287
   6.250000	  -0.945137
   6.259766	  -0.913763
   6.269531	  -0.938145
   6.279297	  -0.998372
   6.289062	  -1.061743
   6.298828	  -1.096669
   6.308594	  -1.086196
   6.318359	  -1.036088
   6.328125	  -0.974321
   6.337891	  -0.941992
   6.347656	  -0.978777
   6.357422	  -1.108131
   6.367188	  -1.327587
   6.376953	  -1.607746
   6.386719	  -1.900398
   6.396484	  -2.152920
   6.406250	  -2.323790
   6.416016	  -2.393605
   6.425781	  -2.367679
   6.435547	  -2.269398
   6.445312	  -2.127030
   6.455078	  -1.959206
   6.464844	  -1.764937
   6.474609	  -1.522353
   6.484375	  -1.197068
   6.494141	  -0.757211
   6.503906	  -0.189252
   6.513672	   0.492070
   6.523438	   1.244708
   6.533203	   2.012341
   6.542969	   2.746057
   6.552734	   3.427454
   6.562500	   4.084427
   6.572266	   4.792385
   6.582031	   5.657933
   6.591797	   6.787784
   6.601562	   8.251067
   6.611328	  10.046368
   6.621094	  12.084550
   6.630859	  14.194506
   6.640625	  16.152510
   6.650391	  17.728683
   6.660156	  18.738495
   6.669922	  19.084995
   6.679688	  18.779516
   6.689453	  17.934314
   6.699219	  16.728598
   6.708984	  15.357053
   6.718750	  13.975273
   6.728516	  12.657604
   6.738281	  11.379581
   6.748047	  10.030243
   6.757812	   8.451136
   6.767578	   6.491191
   6.777344	   4.062076
   6.787109	   1.178303
   6.796875	  -2.029558
   6.806641	  -5.333000
   6.816406	  -8.451039
   6.826172	 -11.111744
   6.835938	 -13.114246
   6.845703	 -14.375453
   6.855469	 -14.949472
   6.865234	 -15.014493
   6.875000	 -14.829884
   6.884766	 -14.673405
   6.894531	 -14.773220
   6.904297	 -15.250614
   6.914062	 -16.086944
   6.923828	 -17.122798
   6.933594	 -18.090186
   6.943359	 -18.671077
   6.953125	 -18.569693
   6.962891	 -17.582671
   6.972656	 -15.651420
   6.982422	 -12.884623
   6.992188	  -9.545250
   7.001953	  -6.004246
   7.011719	  -2.670617
   7.021484	   0.086828
   7.031250	   2.008667
   7.041016	   2.989459
   7.050781	   3.087909
   7.060547	   2.500968
   7.070312	   1.509055
   7.080078	   0.406693
   7.089844	  -0.563603
   7.099609	  -1.257569
   7.109375	  -1.644578
   7.119141	  -1.789972
   7.128906	  -1.811527
   7.138672	  -1.824626
   7.148438	  -1.893794
   7.158203	  -2.006083
   7.167969	  -2.074839
   7.177734	  -1.972647
   7.187500	  -1.582749
   7.197266	  -0.851836
   7.207031	   0.173945
   7.216797	   1.343197
   7.226562	   2.427871
   7.236328	   3.179479
   7.246094	   3.396870
   7.255859	   2.985038
   7.265625	   1.986278
   7.275391	   0.572870
   7.285156	  -0.997931
   7.294922	  -2.454102
   7.304688	  -3.583567
   7.314453	  -4.290822
   7.324219	  -4.617993
   7.333984	  -4.723535
   7.343750	  -4.824816
   7.353516	  -5.122120
   7.363281	  -5.727555
   7.373047	  -6.621012
   7.382812	  -7.647084
   7.392578	  -8.554167
   7.402344	  -9.063890
   7.412109	  -8.949674
   7.421875	  -8.100514
   7.431641	  -6.550926
   7.441406	  -4.468807
   7.451172	  -2.106216
   7.460938	   0.270423
   7.470703	   2.448170
   7.480469	   4.312316
   7.490234	   5.855040
   7.500000	   7.147359
   7.509766	   8.286076
   7.519531	   9.335798
   7.529297	  10.287599
   7.539062	  11.050103
   7.548828	  11.477534
   7.558594	  11.426318
   7.568359	  10.821348
   7.578125	   9.708685
   7.587891	   8.274656
   7.597656	   6.821292
   7.607422	   5.701653
   7.617188	   5.231578
   7.626953	   5.602684
   7.636719	   6.822281
   7.646484	   8.698923
   7.656250	  10.879645
   7.666016	  12.930259
   7.675781	  14.437821
   7.685547	  15.108138
   7.695312	  14.832719
   7.705078	  13.708265
   7.714844	  12.005063
   7.724609	  10.094426
   7.734375	   8.355789
   7.744141	   7.088326
   7.753906	   6.449165
   7.763672	   6.431592
   7.773438	   6.884947
   7.783203	   7.566633
   7.792969	   8.209048
   7.802734	   8.582066
   7.812500	   8.535189
   7.822266	   8.011101
   7.832031	   7.031550
   7.841797	   5.664502
   7.851562	   3.986042
   7.861328	   2.050648
   7.871094	  -0.120566
   7.880859	  -2.530624
   7.890625	  -5.180574
   7.900391	  -8.036095
   7.910156	 -10.998848
   7.919922	 -13.893457
   7.929688	 -16.476699
   7.939453	 -18.469376
   7.949219	 -19.605062
   7.958984	 -19.685061
   7.968750	 -18.626684
   7.978516	 -16.492893
   7.988281	 -13.495111
   7.998047	  -9.966850
   8.007812	  -6.312295
   8.017578	  -2.939778
   8.027344	  -0.193719
   8.037109	   1.700623
   8.046875	   2.667844
   8.056641	   2.782071
   8.066406	   2.236247
   8.076172	   1.288755
   8.085938	   0.200557
   8.095703	  -0.821570
   8.105469	  -1.661752
   8.115234	  -2.302933
