# Time	Amplitude (cm/s/s)
   0.000000	  -0.453218
   0.009766	  -0.390981
   0.019531	  -0.358527
   0.029297	  -0.353256
   0.039062	  -0.367806
   0.048828	  -0.389947
   0.058594	  -0.403445
   0.068359	  -0.390633
   0.078125	  -0.336633
   0.087891	  -0.234229
   0.097656	  -0.087668
   0.107422	   0.086348
   0.117188	   0.261520
   0.126953	   0.408340
   0.136719	   0.502354
   0.146484	   0.531675
   0.156250	   0.501125
   0.166016	   0.431355
   0.175781	   0.352944
   0.185547	   0.297285
   0.195312	   0.287254
   0.205078	   0.330858
   0.214844	   0.419988
   0.224609	   0.534614
   0.234375	   0.650667
   0.244141	   0.748487
   0.253906	   0.818458
   0.263672	   0.861548
   0.273438	   0.884542
   0.283203	   0.892026
   0.292969	   0.878756
   0.302734	   0.826250
   0.312500	   0.706099
   0.322266	   0.489935
   0.332031	   0.163212
   0.341797	  -0.262124
   0.351562	  -0.741375
   0.361328	  -1.200967
   0.371094	  -1.553055
   0.380859	  -1.717679
   0.390625	  -1.646244
   0.400391	  -1.338880
   0.410156	  -0.849465
   0.419922	  -0.275493
   0.429688	   0.265391
   0.439453	   0.665997
   0.449219	   0.858532
   0.458984	   0.833108
   0.468750	   0.639917
   0.478516	   0.374002
   0.488281	   0.146911
   0.498047	   0.053603
   0.507812	   0.144567
   0.517578	   0.411571
   0.527344	   0.791260
   0.537109	   1.185324
   0.546875	   1.490847
   0.556641	   1.631382
   0.566406	   1.579219
   0.576172	   1.362236
   0.585938	   1.053609
   0.595703	   0.748047
   0.605469	   0.532236
   0.615234	   0.458734
   0.625000	   0.531130
   0.634766	   0.704488
   0.644531	   0.900210
   0.654297	   1.030051
   0.664062	   1.021513
   0.673828	   0.836919
   0.683594	   0.480930
   0.693359	  -0.004744
   0.703125	  -0.556641
   0.712891	  -1.109160
   0.722656	  -1.611997
   0.732422	  -2.040259
   0.742188	  -2.395024
   0.751953	  -2.695484
   0.761719	  -2.966532
   0.771484	  -3.226742
   0.781250	  -3.481075
   0.791016	  -3.720489
   0.800781	  -3.927940
   0.810547	  -4.087909
   0.820312	  -4.195463
   0.830078	  -4.261181
   0.839844	  -4.309926
   0.849609	  -4.373759
   0.859375	  -4.481353
   0.869141	  -4.647545
   0.878906	  -4.866589
   0.888672	  -5.111486
   0.898438	  -5.339838
   0.908203	  -5.504705
   0.917969	  -5.567502
   0.927734	  -5.509487
   0.937500	  -5.338864
   0.947266	  -5.091748
   0.957031	  -4.826709
   0.966797	  -4.614051
   0.976562	  -4.521960
   0.986328	  -4.602092
   0.996094	  -4.877247
   1.005859	  -5.333360
   1.015625	  -5.917539
   1.025391	  -6.543052
   1.035156	  -7.101211
   1.044922	  -7.478883
   1.054688	  -7.579066
   1.064453	  -7.340834
   1.074219	  -6.754336
   1.083984	  -5.866844
   1.093750	  -4.777231
   1.103516	  -3.618676
   1.113281	  -2.532291
   1.123047	  -1.637081
   1.132812	  -1.003232
   1.142578	  -0.635602
   1.152344	  -0.472221
   1.162109	  -0.398988
   1.171875	  -0.277502
   1.181641	   0.020727
   1.191406	   0.582416
   1.201172	   1.431287
   1.210938	   2.522990
   1.220703	   3.757211
   1.230469	   5.003238
   1.240234	   6.131547
   1.250000	   7.042531
   1.259766	   7.684674
   1.269531	   8.057963
   1.279297	   8.202962
   1.289062	   8.180282
   1.298828	   8.047815
   1.308594	   7.843280
   1.318359	   7.577297
   1.328125	   7.238349
   1.337891	   6.806774
   1.347656	   6.271947
   1.357422	   5.645893
   1.367188	   4.968070
   1.376953	   4.299356
   1.386719	   3.707148
   1.396484	   3.246676
   1.406250	   2.944922
   1.416016	   2.792638
   1.425781	   2.747148
   1.435547	   2.744972
   1.445312	   2.720017
   1.455078	   2.621448
   1.464844	   2.425635
   1.474609	   2.138869
   1.484375	   1.790779
   1.494141	   1.421501
   1.503906	   1.067519
   1.513672	   0.751153
   1.523438	   0.476910
   1.533203	   0.235194
   1.542969	   0.011074
   1.552734	  -0.205895
   1.562500	  -0.414923
   1.572266	  -0.602933
   1.582031	  -0.749432
   1.591797	  -0.835074
   1.601562	  -0.850268
   1.611328	  -0.800198
   1.621094	  -0.704141
   1.630859	  -0.589307
   1.640625	  -0.481654
   1.650391	  -0.397362
   1.660156	  -0.338392
   1.669922	  -0.293887
   1.679688	  -0.246765
   1.689453	  -0.182668
   1.699219	  -0.097397
   1.708984	   0.000526
   1.718750	   0.093543
   1.728516	   0.163735
   1.738281	   0.202951
   1.748047	   0.219914
   1.757812	   0.240714
   1.767578	   0.301539
   1.777344	   0.435670
   1.787109	   0.659410
   1.796875	   0.962661
   1.806641	   1.308696
   1.816406	   1.644588
   1.826172	   1.919739
   1.835938	   2.106439
   1.845703	   2.214827
   1.855469	   2.295699
   1.865234	   2.428266
   1.875000	   2.695078
   1.884766	   3.151164
   1.894531	   3.797320
   1.904297	   4.567170
   1.914062	   5.334015
   1.923828	   5.937525
   1.933594	   6.223937
   1.943359	   6.088599
   1.953125	   5.508198
   1.962891	   4.552497
   1.972656	   3.371119
   1.982422	   2.158324
   1.992188	   1.105319
   2.001953	   0.353516
   2.011719	  -0.038148
   2.021484	  -0.102901
   2.031250	   0.049173
   2.041016	   0.266080
   2.050781	   0.397594
   2.060547	   0.334724
   2.070312	   0.034023
   2.080078	  -0.478934
   2.089844	  -1.125898
   2.099609	  -1.805138
   2.109375	  -2.423172
   2.119141	  -2.918909
   2.128906	  -3.273549
   2.138672	  -3.504913
   2.148438	  -3.650244
   2.158203	  -3.745063
   2.167969	  -3.806297
   2.177734	  -3.825647
   2.187500	  -3.774937
   2.197266	  -3.620612
   2.207031	  -3.341301
   2.216797	  -2.941473
   2.226562	  -2.455909
   2.236328	  -1.943277
   2.246094	  -1.471089
   2.255859	  -1.097397
   2.265625	  -0.855537
   2.275391	  -0.746953
   2.285156	  -0.744075
   2.294922	  -0.801637
   2.304688	  -0.872015
   2.314453	  -0.919073
   2.324219	  -0.926037
   2.333984	  -0.895401
   2.343750	  -0.842030
   2.353516	  -0.782994
   2.363281	  -0.728627
   2.373047	  -0.678373
   2.382812	  -0.622761
   2.392578	  -0.550170
   2.402344	  -0.455036
   2.412109	  -0.343638
   2.421875	  -0.234631
   2.431641	  -0.153784
   2.441406	  -0.124855
   2.451172	  -0.160242
   2.460938	  -0.255277
   2.470703	  -0.388633
   2.480469	  -0.528872
   2.490234	  -0.644628
   2.500000	  -0.714364
   2.509766	  -0.731670
   2.519531	  -0.703842
   2.529297	  -0.644210
   2.539062	  -0.561463
   2.548828	  -0.450734
   2.558594	  -0.290923
   2.568359	  -0.050529
   2.578125	   0.299101
   2.587891	   0.767438
   2.597656	   1.331568
   2.607422	   1.931988
   2.617188	   2.480646
   2.626953	   2.880338
   2.636719	   3.050388
   2.646484	   2.950790
   2.656250	   2.596757
   2.666016	   2.058178
   2.675781	   1.443107
   2.685547	   0.869531
   2.695312	   0.433680
   2.705078	   0.184473
   2.714844	   0.112011
   2.724609	   0.153612
   2.734375	   0.215379
   2.744141	   0.202333
   2.753906	   0.047563
   2.763672	  -0.268662
   2.773438	  -0.715346
   2.783203	  -1.223116
   2.792969	  -1.707585
   2.802734	  -2.095494
   2.812500	  -2.344868
   2.822266	  -2.452983
   2.832031	  -2.450417
   2.841797	  -2.384450
   2.851562	  -2.298600
   2.861328	  -2.216123
   2.871094	  -2.133439
   2.880859	  -2.025501
   2.890625	  -1.860519
   2.900391	  -1.617938
   2.910156	  -1.302391
   2.919922	  -0.947864
   2.929688	  -0.610046
   2.939453	  -0.349276
   2.949219	  -0.210104
   2.958984	  -0.204914
   2.968750	  -0.307738
   2.978516	  -0.460875
   2.988281	  -0.592439
   2.998047	  -0.639089
   3.007812	  -0.566348
   3.017578	  -0.379760
   3.027344	  -0.123237
   3.037109	   0.134655
   3.046875	   0.321760
   3.056641	   0.383709
   3.066406	   0.298815
   3.076172	   0.082142
   3.085938	  -0.221689
   3.095703	  -0.553661
   3.105469	  -0.857787
   3.115234	  -1.094908
   3.125000	  -1.248828
   3.134766	  -1.323959
   3.144531	  -1.336825
   3.154297	  -1.305754
   3.164062	  -1.243263
   3.173828	  -1.153906
   3.183594	  -1.037696
   3.193359	  -0.896590
   3.203125	  -0.740189
   3.212891	  -0.587192
   3.222656	  -0.461150
   3.232422	  -0.381796
   3.242188	  -0.355567
   3.251953	  -0.369749
   3.261719	  -0.393646
   3.271484	  -0.387479
   3.281250	  -0.316507
   3.291016	  -0.165319
   3.300781	   0.053445
   3.310547	   0.300094
   3.320312	   0.519403
   3.330078	   0.659365
   3.339844	   0.690816
   3.349609	   0.620586
   3.359375	   0.492620
   3.369141	   0.375516
   3.378906	   0.339818
   3.388672	   0.432458
   3.398438	   0.657285
   3.408203	   0.969110
   3.417969	   1.284287
   3.427734	   1.505233
   3.437500	   1.551186
   3.447266	   1.385001
   3.457031	   1.026734
   3.466797	   0.549011
   3.476562	   0.055362
   3.486328	  -0.351406
   3.496094	  -0.600177
   3.505859	  -0.671337
   3.515625	  -0.598783
   3.525391	  -0.453759
   3.535156	  -0.316586
   3.544922	  -0.246715
   3.554688	  -0.262087
   3.564453	  -0.335401
   3.574219	  -0.408571
   3.583984	  -0.419822
   3.593750	  -0.332907
   3.603516	  -0.156828
   3.613281	   0.052348
   3.623047	   0.209441
   3.632812	   0.232210
   3.642578	   0.076074
   3.652344	  -0.241747
   3.662109	  -0.638909
   3.671875	  -0.988679
   3.681641	  -1.159422
   3.691406	  -1.060329
   3.701172	  -0.677771
   3.710938	  -0.088892
   3.720703	   0.553896
   3.730469	   1.064276
   3.740234	   1.277078
   3.750000	   1.099731
   3.759766	   0.543371
   3.769531	  -0.276972
   3.779297	  -1.173843
   3.789062	  -1.940931
   3.798828	  -2.411989
   3.808594	  -2.506584
   3.818359	  -2.248541
   3.828125	  -1.751960
   3.837891	  -1.180271
   3.847656	  -0.692454
   3.857422	  -0.394322
   3.867188	  -0.310484
   3.876953	  -0.385132
   3.886719	  -0.509806
   3.896484	  -0.567201
   3.906250	  -0.475065
   3.916016	  -0.214851
   3.925781	   0.164252
   3.935547	   0.566242
   3.945312	   0.885652
   3.955078	   1.047178
   3.964844	   1.033084
   3.974609	   0.888674
   3.984375	   0.704375
   3.994141	   0.581482
   4.003906	   0.594465
   4.013672	   0.763729
   4.023438	   1.048632
   4.033203	   1.362993
   4.042969	   1.606968
   4.052734	   1.703299
   4.062500	   1.624461
   4.072266	   1.400827
   4.082031	   1.107170
   4.091797	   0.832942
   4.101562	   0.647813
   4.111328	   0.575658
   4.121094	   0.586914
   4.130859	   0.612202
   4.140625	   0.572003
   4.150391	   0.410952
   4.160156	   0.123410
   4.169922	  -0.239890
   4.179688	  -0.587278
   4.189453	  -0.818398
   4.199219	  -0.861456
   4.208984	  -0.701390
   4.218750	  -0.387908
   4.228516	  -0.019629
   4.238281	   0.290545
   4.248047	   0.456459
   4.257812	   0.450942
   4.267578	   0.316863
   4.277344	   0.152058
   4.287109	   0.072820
   4.296875	   0.168742
   4.306641	   0.465445
   4.316406	   0.909418
   4.326172	   1.381633
   4.335938	   1.736278
   4.345703	   1.851663
   4.355469	   1.675423
   4.365234	   1.247529
   4.375000	   0.691992
   4.384766	   0.179035
   4.394531	  -0.129989
   4.404297	  -0.136204
   4.414062	   0.163295
   4.423828	   0.674002
   4.433594	   1.235506
   4.443359	   1.675311
   4.453125	   1.866401
   4.462891	   1.768551
   4.472656	   1.439048
   4.482422	   1.009259
   4.492188	   0.635633
   4.501953	   0.442870
   4.511719	   0.479813
   4.521484	   0.704035
   4.531250	   1.000723
   4.541016	   1.228905
   4.550781	   1.277933
   4.560547	   1.113101
   4.570312	   0.792941
   4.580078	   0.450882
   4.589844	   0.247010
   4.599609	   0.306936
   4.609375	   0.670123
   4.619141	   1.267296
   4.628906	   1.936628
   4.638672	   2.474577
   4.648438	   2.704559
   4.658203	   2.539575
   4.667969	   2.016250
   4.677734	   1.287234
   4.687500	   0.573296
   4.697266	   0.090753
   4.707031	  -0.020986
   4.716797	   0.253502
   4.726562	   0.800800
   4.736328	   1.418283
   4.746094	   1.884780
   4.755859	   2.037658
   4.765625	   1.829068
   4.775391	   1.341164
   4.785156	   0.754492
   4.794922	   0.280551
   4.804688	   0.082641
   4.814453	   0.213909
   4.824219	   0.595880
   4.833984	   1.046649
   4.843750	   1.349995
   4.853516	   1.341372
   4.863281	   0.979617
   4.873047	   0.377019
   4.882812	  -0.225803
   4.892578	  -0.534586
   4.902344	  -0.302118
   4.912109	   0.578911
   4.921875	   2.023562
   4.931641	   3.762826
   4.941406	   5.412348
   4.951172	   6.581172
   4.960938	   6.985946
   4.970703	   6.533652
   4.980469	   5.346118
   4.990234	   3.719142
   5.000000	   2.031200
   5.009766	   0.633728
   5.019531	  -0.239240
   5.029297	  -0.512002
   5.039062	  -0.247254
   5.048828	   0.423083
   5.058594	   1.385570
   5.068359	   2.612827
   5.078125	   4.179039
   5.087891	   6.211103
   5.097656	   8.789128
   5.107422	  11.833089
   5.117188	  15.023751
   5.126953	  17.800140
   5.136719	  19.453394
   5.146484	  19.304067
   5.156250	  16.917516
   5.166016	  12.291190
   5.175781	   5.946973
   5.185547	  -1.116608
   5.195312	  -7.618384
   5.205078	 -12.295399
   5.214844	 -14.233680
   5.224609	 -13.134881
   5.234375	  -9.435196
   5.244141	  -4.229845
   5.253906	   0.989693
   5.263672	   4.723023
   5.273438	   5.869697
   5.283203	   4.044299
   5.292969	  -0.296438
   5.302734	  -5.958864
   5.312500	 -11.329292
   5.322266	 -14.820098
   5.332031	 -15.322384
   5.341797	 -12.536514
   5.351562	  -7.082731
   5.361328	  -0.354064
   5.371094	   5.853805
   5.380859	   9.836796
   5.390625	  10.464535
   5.400391	   7.514851
   5.410156	   1.764568
   5.419922	  -5.192415
   5.429688	 -11.352734
   5.439453	 -14.826613
   5.449219	 -14.333723
   5.458984	  -9.536970
   5.468750	  -1.125021
   5.478516	   9.375157
   5.488281	  19.999512
   5.498047	  28.847639
   5.507812	  34.544147
   5.517578	  36.537135
   5.527344	  35.160445
   5.537109	  31.456159
   5.546875	  26.822388
   5.556641	  22.598567
   5.566406	  19.712688
   5.576172	  18.489392
   5.585938	  18.663203
   5.595703	  19.574867
   5.605469	  20.471713
   5.615234	  20.802935
   5.625000	  20.407096
   5.634766	  19.529521
   5.644531	  18.668532
   5.654297	  18.311277
   5.664062	  18.661774
   5.673828	  19.470722
   5.683594	  20.045321
   5.693359	  19.456338
   5.703125	  16.888324
   5.712891	  12.020616
   5.722656	   5.302254
   5.732422	  -1.996087
   5.742188	  -8.008500
   5.751953	 -10.747599
   5.761719	  -8.709419
   5.771484	  -1.436541
   5.781250	  10.141166
   5.791016	  23.721020
   5.800781	  36.037055
   5.810547	  43.591150
   5.820312	  43.531600
   5.830078	  34.447810
   5.839844	  16.856123
   5.849609	  -6.776712
   5.859375	 -32.506426
   5.869141	 -55.779587
   5.878906	 -72.484522
   5.888672	 -79.915709
   5.898438	 -77.400083
   5.908203	 -66.421535
   5.917969	 -50.214259
   5.927734	 -32.938571
   5.937500	 -18.663671
   5.947266	 -10.428634
   5.957031	  -9.622839
   5.966797	 -15.829403
   5.976562	 -27.139800
   5.986328	 -40.814997
   5.996094	 -54.077567
   6.005859	 -64.796435
   6.015625	 -71.875980
   6.025391	 -75.266626
   6.035156	 -75.640221
   6.044922	 -73.879828
   6.054688	 -70.586440
   6.064453	 -65.788404
   6.074219	 -58.959584
   6.083984	 -49.336744
   6.093750	 -36.414300
   6.103516	 -20.423738
   6.113281	  -2.600504
   6.123047	  14.893793
   6.132812	  29.411446
   6.142578	  38.511473
   6.152344	  40.698537
   6.162109	  35.967851
   6.171875	  25.960388
   6.181641	  13.644136
   6.191406	   2.582377
   6.201172	  -4.016219
   6.210938	  -4.191870
   6.220703	   2.198330
   6.230469	  13.421873
   6.240234	  26.357229
   6.250000	  37.396923
   6.259766	  43.509302
   6.269531	  43.146247
   6.279297	  36.722976
   6.289062	  26.518742
   6.298828	  16.017818
   6.308594	   8.877774
   6.318359	   7.825647
   6.328125	  13.807554
   6.337891	  25.645163
   6.347656	  40.304627
   6.357422	  53.704103
   6.367188	  61.828610
   6.376953	  61.832624
   6.386719	  52.817097
   6.396484	  36.065730
   6.406250	  14.684673
   6.416016	  -7.238002
   6.425781	 -25.703146
   6.435547	 -37.795382
   6.445312	 -42.330824
   6.455078	 -39.999597
   6.464844	 -32.999178
   6.474609	 -24.301658
   6.484375	 -16.794079
   6.494141	 -12.549215
   6.503906	 -12.423252
   6.513672	 -16.059797
   6.523438	 -22.246545
   6.533203	 -29.464729
   6.542969	 -36.425053
   6.552734	 -42.408942
   6.562500	 -47.318899
   6.572266	 -51.455121
   6.582031	 -55.137427
   6.591797	 -58.346989
   6.601562	 -60.552436
   6.611328	 -60.813494
   6.621094	 -58.147280
   6.630859	 -52.035262
   6.640625	 -42.880858
   6.650391	 -32.224089
   6.660156	 -22.585185
   6.669922	 -16.924959
   6.679688	 -17.840130
   6.689453	 -26.714196
   6.699219	 -43.084097
   6.708984	 -64.443109
   6.718750	 -86.589243
   6.728516	-104.476232
   6.738281	-113.375037
   6.748047	-110.052553
   6.757812	 -93.652305
   6.767578	 -66.028668
   6.777344	 -31.424643
   6.787109	   4.444168
   6.796875	  35.678097
   6.806641	  57.532740
   6.816406	  67.473175
   6.826172	  65.682839
   6.835938	  54.910891
   6.845703	  39.714210
   6.855469	  25.303466
   6.865234	  16.296128
   6.875000	  15.689504
   6.884766	  24.294316
   6.894531	  40.736981
   6.904297	  61.985167
   6.914062	  84.219081
   6.923828	 103.794922
   6.933594	 118.044430
   6.943359	 125.721584
   6.953125	 127.020988
   6.962891	 123.217805
   6.972656	 116.079921
   6.982422	 107.252671
   6.992188	  97.804085
   7.001953	  88.051935
   7.011719	  77.696062
   7.021484	  66.181163
   7.031250	  53.145931
   7.041016	  38.793442
   7.050781	  24.049153
   7.060547	  10.445289
   7.070312	  -0.239664
   7.080078	  -6.477938
   7.089844	  -7.472051
   7.099609	  -3.465010
   7.109375	   4.222580
   7.119141	  13.452594
   7.128906	  21.763481
   7.138672	  26.966062
   7.148438	  27.677838
   7.158203	  23.648704
   7.167969	  15.789133
   7.177734	   5.895062
   7.187500	  -3.851956
   7.197266	 -11.469490
   7.207031	 -15.682729
   7.216797	 -16.219963
   7.226562	 -13.820615
   7.236328	  -9.963557
   7.246094	  -6.401743
   7.255859	  -4.641556
   7.265625	  -5.517217
   7.275391	  -8.979519
   7.285156	 -14.153590
   7.294922	 -19.641425
   7.304688	 -23.974349
   7.314453	 -26.078514
   7.324219	 -25.614625
   7.333984	 -23.091360
   7.343750	 -19.718895
   7.353516	 -17.045083
   7.363281	 -16.480218
   7.373047	 -18.848952
   7.382812	 -24.100773
   7.392578	 -31.265823
   7.402344	 -38.673637
   7.412109	 -44.378342
   7.421875	 -46.675621
   7.431641	 -44.570525
   7.441406	 -38.067841
   7.451172	 -28.204320
   7.460938	 -16.811230
   7.470703	  -6.067416
   7.480469	   2.041974
   7.490234	   6.221908
   7.500000	   6.192366
   7.509766	   2.760007
   7.519531	  -2.380438
   7.529297	  -7.064597
   7.539062	  -9.193264
   7.548828	  -7.254052
   7.558594	  -0.706456
   7.568359	   9.857880
   7.578125	  22.813461
   7.587891	  35.831828
   7.597656	  46.367954
   7.607422	  52.193734
   7.617188	  51.863996
   7.626953	  45.019207
   7.636719	  32.466716
   7.646484	  16.029880
   7.656250	  -1.798582
   7.666016	 -18.325441
   7.675781	 -31.153425
   7.685547	 -38.608819
   7.695312	 -40.020182
   7.705078	 -35.799115
   7.714844	 -27.313250
   7.724609	 -16.581779
   7.734375	  -5.857607
   7.744141	   2.818775
   7.753906	   8.004365
   7.763672	   9.101922
   7.773438	   6.424731
   7.783203	   1.070079
   7.792969	  -5.365704
   7.802734	 -11.164096
   7.812500	 -14.867611
   7.822266	 -15.584299
   7.832031	 -13.148341
   7.841797	  -8.106587
   7.851562	  -1.542609
   7.861328	   5.211928
   7.871094	  10.903583
   7.880859	  14.640156
   7.890625	  16.063953
   7.900391	  15.379645
   7.910156	  13.239829
   7.919922	  10.527558
   7.929688	   8.099367
   7.939453	   6.558552
   7.949219	   6.115953
   7.958984	   6.568565
   7.968750	   7.393016
   7.978516	   7.920759
   7.988281	   7.542721
   7.998047	   5.887384
   8.007812	   2.927639
   8.017578	  -1.006220
   8.027344	  -5.304347
   8.037109	  -9.220986
   8.046875	 -12.045691
   8.056641	 -13.261962
   8.066406	 -12.660821
   8.076172	 -10.390588
   8.085938	  -6.939106
   8.095703	  -3.056894
   8.105469	   0.362685
   8.115234	   2.427206
