# Time	Amplitude (cm/s/s)
   0.000000	  -0.062460
   0.009766	  -0.330607
   0.019531	  -0.539597
   0.029297	  -0.653970
   0.039062	  -0.661617
   0.048828	  -0.575656
   0.058594	  -0.429276
   0.068359	  -0.265165
   0.078125	  -0.122694
   0.087891	  -0.026682
   0.097656	   0.018962
   0.107422	   0.030883
   0.117188	   0.039408
   0.126953	   0.077290
   0.136719	   0.167540
   0.146484	   0.314082
   0.156250	   0.498180
   0.166016	   0.681879
   0.175781	   0.817638
   0.185547	   0.861500
   0.195312	   0.786018
   0.205078	   0.589194
   0.214844	   0.296698
   0.224609	  -0.043433
   0.234375	  -0.372338
   0.244141	  -0.635017
   0.253906	  -0.794138
   0.263672	  -0.839115
   0.273438	  -0.787903
   0.283203	  -0.680959
   0.292969	  -0.569023
   0.302734	  -0.498124
   0.312500	  -0.496060
   0.322266	  -0.564197
   0.332031	  -0.677005
   0.341797	  -0.789566
   0.351562	  -0.851017
   0.361328	  -0.820177
   0.371094	  -0.678921
   0.380859	  -0.439420
   0.390625	  -0.143049
   0.400391	   0.148919
   0.410156	   0.370391
   0.419922	   0.467222
   0.429688	   0.411075
   0.439453	   0.206590
   0.449219	  -0.110076
   0.458984	  -0.480810
   0.468750	  -0.840456
   0.478516	  -1.132831
   0.488281	  -1.323402
   0.498047	  -1.405240
   0.507812	  -1.396902
   0.517578	  -1.333285
   0.527344	  -1.252557
   0.537109	  -1.183294
   0.546875	  -1.135776
   0.556641	  -1.099984
   0.566406	  -1.050674
   0.576172	  -0.957690
   0.585938	  -0.798061
   0.595703	  -0.565941
   0.605469	  -0.277177
   0.615234	   0.032925
   0.625000	   0.317923
   0.634766	   0.532000
   0.644531	   0.641503
   0.654297	   0.632737
   0.664062	   0.513793
   0.673828	   0.310145
   0.683594	   0.055766
   0.693359	  -0.217104
   0.703125	  -0.486098
   0.712891	  -0.742159
   0.722656	  -0.987425
   0.732422	  -1.228641
   0.742188	  -1.468846
   0.751953	  -1.700662
   0.761719	  -1.904028
   0.771484	  -2.049649
   0.781250	  -2.107397
   0.791016	  -2.057041
   0.800781	  -1.897657
   0.810547	  -1.652260
   0.820312	  -1.365526
   0.830078	  -1.094653
   0.839844	  -0.895597
   0.849609	  -0.808558
   0.859375	  -0.846972
   0.869141	  -0.993434
   0.878906	  -1.203936
   0.888672	  -1.419375
   0.898438	  -1.581124
   0.908203	  -1.646206
   0.917969	  -1.597776
   0.927734	  -1.447996
   0.937500	  -1.232714
   0.947266	  -0.999739
   0.957031	  -0.794420
   0.966797	  -0.646863
   0.976562	  -0.564564
   0.986328	  -0.532425
   0.996094	  -0.519879
   1.005859	  -0.492655
   1.015625	  -0.425399
   1.025391	  -0.311218
   1.035156	  -0.165252
   1.044922	  -0.021253
   1.054688	   0.077684
   1.064453	   0.091402
   1.074219	  -0.005709
   1.083984	  -0.217129
   1.093750	  -0.522748
   1.103516	  -0.883730
   1.113281	  -1.252114
   1.123047	  -1.582198
   1.132812	  -1.840426
   1.142578	  -2.011051
   1.152344	  -2.096216
   1.162109	  -2.110804
   1.171875	  -2.073949
   1.181641	  -2.000028
   1.191406	  -1.892068
   1.201172	  -1.739750
   1.210938	  -1.522812
   1.220703	  -1.219042
   1.230469	  -0.814675
   1.240234	  -0.314172
   1.250000	   0.253673
   1.259766	   0.835527
   1.269531	   1.360079
   1.279297	   1.750482
   1.289062	   1.940231
   1.298828	   1.888971
   1.308594	   1.594420
   1.318359	   1.097249
   1.328125	   0.477153
   1.337891	  -0.159683
   1.347656	  -0.699519
   1.357422	  -1.042578
   1.367188	  -1.122498
   1.376953	  -0.919374
   1.386719	  -0.463340
   1.396484	   0.172189
   1.406250	   0.886089
   1.416016	   1.570228
   1.425781	   2.130356
   1.435547	   2.502267
   1.445312	   2.659553
   1.455078	   2.611605
   1.464844	   2.393199
   1.474609	   2.049285
   1.484375	   1.619961
   1.494141	   1.130380
   1.503906	   0.588754
   1.513672	  -0.007038
   1.523438	  -0.656630
   1.533203	  -1.342808
   1.542969	  -2.021132
   1.552734	  -2.618249
   1.562500	  -3.041126
   1.572266	  -3.196085
   1.582031	  -3.013184
   1.591797	  -2.469280
   1.601562	  -1.602725
   1.611328	  -0.514352
   1.621094	   0.647121
   1.630859	   1.712887
   1.640625	   2.528814
   1.650391	   2.988610
   1.660156	   3.056782
   1.669922	   2.775181
   1.679688	   2.251094
   1.689453	   1.629740
   1.699219	   1.058214
   1.708984	   0.650298
   1.718750	   0.461281
   1.728516	   0.479228
   1.738281	   0.634571
   1.748047	   0.824880
   1.757812	   0.947525
   1.767578	   0.930881
   1.777344	   0.755272
   1.787109	   0.457906
   1.796875	   0.120659
   1.806641	  -0.155564
   1.816406	  -0.282340
   1.826172	  -0.211989
   1.835938	   0.045613
   1.845703	   0.422555
   1.855469	   0.809072
   1.865234	   1.082012
   1.875000	   1.137848
   1.884766	   0.921231
   1.894531	   0.441359
   1.904297	  -0.228252
   1.914062	  -0.966493
   1.923828	  -1.633424
   1.933594	  -2.103473
   1.943359	  -2.294480
   1.953125	  -2.185262
   1.962891	  -1.817576
   1.972656	  -1.282547
   1.982422	  -0.695650
   1.992188	  -0.167214
   2.001953	   0.223729
   2.011719	   0.445580
   2.021484	   0.516550
   2.031250	   0.493360
   2.041016	   0.449979
   2.050781	   0.452695
   2.060547	   0.538620
   2.070312	   0.703582
   2.080078	   0.902683
   2.089844	   1.063265
   2.099609	   1.106606
   2.109375	   0.972321
   2.119141	   0.638659
   2.128906	   0.133002
   2.138672	  -0.470558
   2.148438	  -1.066252
   2.158203	  -1.540643
   2.167969	  -1.799563
   2.177734	  -1.791129
   2.187500	  -1.518918
   2.197266	  -1.041897
   2.207031	  -0.461008
   2.216797	   0.104268
   2.226562	   0.543590
   2.236328	   0.780829
   2.246094	   0.790437
   2.255859	   0.601251
   2.265625	   0.287077
   2.275391	  -0.053281
   2.285156	  -0.321304
   2.294922	  -0.442899
   2.304688	  -0.385404
   2.314453	  -0.163401
   2.324219	   0.167715
   2.333984	   0.528370
   2.343750	   0.836986
   2.353516	   1.031775
   2.363281	   1.086430
   2.373047	   1.015740
   2.382812	   0.869820
   2.392578	   0.718709
   2.402344	   0.631537
   2.412109	   0.655947
   2.421875	   0.803300
   2.431641	   1.043755
   2.441406	   1.312679
   2.451172	   1.526935
   2.460938	   1.606926
   2.470703	   1.498727
   2.480469	   1.190467
   2.490234	   0.718470
   2.500000	   0.161217
   2.509766	  -0.377755
   2.519531	  -0.793991
   2.529297	  -1.007368
   2.539062	  -0.982080
   2.548828	  -0.736148
   2.558594	  -0.337834
   2.568359	   0.110397
   2.578125	   0.496473
   2.587891	   0.725702
   2.597656	   0.743267
   2.607422	   0.546439
   2.617188	   0.183364
   2.626953	  -0.261155
   2.636719	  -0.688966
   2.646484	  -1.014577
   2.656250	  -1.186684
   2.666016	  -1.199337
   2.675781	  -1.089728
   2.685547	  -0.923468
   2.695312	  -0.771815
   2.705078	  -0.687752
   2.714844	  -0.688193
   2.724609	  -0.747870
   2.734375	  -0.807003
   2.744141	  -0.790688
   2.753906	  -0.634296
   2.763672	  -0.307161
   2.773438	   0.172918
   2.783203	   0.739272
   2.792969	   1.290884
   2.802734	   1.718145
   2.812500	   1.932685
   2.822266	   1.892661
   2.832031	   1.615967
   2.841797	   1.177251
   2.851562	   0.689233
   2.861328	   0.273460
   2.871094	   0.028685
   2.880859	   0.005798
   2.890625	   0.196293
   2.900391	   0.537270
   2.910156	   0.931119
   2.919922	   1.273850
   2.929688	   1.483625
   2.939453	   1.521316
   2.949219	   1.397510
   2.958984	   1.164667
   2.968750	   0.897599
   2.978516	   0.668816
   2.988281	   0.526535
   2.998047	   0.481924
   3.007812	   0.508991
   3.017578	   0.556408
   3.027344	   0.566869
   3.037109	   0.497423
   3.046875	   0.334208
   3.056641	   0.097123
   3.066406	  -0.166670
   3.076172	  -0.397899
   3.085938	  -0.543870
   3.095703	  -0.574691
   3.105469	  -0.492078
   3.115234	  -0.328369
   3.125000	  -0.136519
   3.134766	   0.025428
   3.144531	   0.110444
   3.154297	   0.094435
   3.164062	  -0.019125
   3.173828	  -0.202485
   3.183594	  -0.413065
   3.193359	  -0.605659
   3.203125	  -0.743648
   3.212891	  -0.806301
   3.222656	  -0.790893
   3.232422	  -0.710131
   3.242188	  -0.586659
   3.251953	  -0.446887
   3.261719	  -0.315935
   3.271484	  -0.214531
   3.281250	  -0.157670
   3.291016	  -0.154182
   3.300781	  -0.206316
   3.310547	  -0.308974
   3.320312	  -0.448965
   3.330078	  -0.605217
   3.339844	  -0.750919
   3.349609	  -0.857980
   3.359375	  -0.903188
   3.369141	  -0.874473
   3.378906	  -0.775121
   3.388672	  -0.624096
   3.398438	  -0.451685
   3.408203	  -0.291266
   3.417969	  -0.169523
   3.427734	  -0.098236
   3.437500	  -0.070592
   3.447266	  -0.063592
   3.457031	  -0.046150
   3.466797	   0.009584
   3.476562	   0.117462
   3.486328	   0.270948
   3.496094	   0.443601
   3.505859	   0.596647
   3.515625	   0.691341
   3.525391	   0.702008
   3.535156	   0.625223
   3.544922	   0.481746
   3.554688	   0.310245
   3.564453	   0.154730
   3.574219	   0.049913
   3.583984	   0.009606
   3.593750	   0.022380
   3.603516	   0.056245
   3.613281	   0.070950
   3.623047	   0.033703
   3.632812	  -0.067263
   3.642578	  -0.216331
   3.652344	  -0.373996
   3.662109	  -0.489442
   3.671875	  -0.518187
   3.681641	  -0.438751
   3.691406	  -0.262444
   3.701172	  -0.032529
   3.710938	   0.187425
   3.720703	   0.332422
   3.730469	   0.355994
   3.740234	   0.244541
   3.750000	   0.021196
   3.759766	  -0.262153
   3.769531	  -0.541933
   3.779297	  -0.763186
   3.789062	  -0.896059
   3.798828	  -0.942789
   3.808594	  -0.932854
   3.818359	  -0.908210
   3.828125	  -0.904143
   3.837891	  -0.932981
   3.847656	  -0.976991
   3.857422	  -0.993590
   3.867188	  -0.931519
   3.876953	  -0.752521
   3.886719	  -0.450711
   3.896484	  -0.062232
   3.906250	   0.339201
   3.916016	   0.660496
   3.925781	   0.815996
   3.935547	   0.754505
   3.945312	   0.477633
   3.955078	   0.043101
   3.964844	  -0.448711
   3.974609	  -0.881268
   3.984375	  -1.153503
   3.994141	  -1.206918
   4.003906	  -1.039951
   4.013672	  -0.705491
   4.023438	  -0.292795
   4.033203	   0.100051
   4.042969	   0.394192
   4.052734	   0.549887
   4.062500	   0.572503
   4.072266	   0.503790
   4.082031	   0.402408
   4.091797	   0.321073
   4.101562	   0.288367
   4.111328	   0.301155
   4.121094	   0.329591
   4.130859	   0.332106
   4.140625	   0.274392
   4.150391	   0.145224
   4.160156	  -0.036668
   4.169922	  -0.227046
   4.179688	  -0.370191
   4.189453	  -0.417445
   4.199219	  -0.343714
   4.208984	  -0.156335
   4.218750	   0.106516
   4.228516	   0.386965
   4.238281	   0.624071
   4.248047	   0.770299
   4.257812	   0.802668
   4.267578	   0.725636
   4.277344	   0.565882
   4.287109	   0.361851
   4.296875	   0.152332
   4.306641	  -0.032039
   4.316406	  -0.172230
   4.326172	  -0.259519
   4.335938	  -0.291722
   4.345703	  -0.269893
   4.355469	  -0.197688
   4.365234	  -0.083659
   4.375000	   0.055275
   4.384766	   0.192179
   4.394531	   0.292982
   4.404297	   0.324780
   4.414062	   0.267749
   4.423828	   0.126465
   4.433594	  -0.064544
   4.443359	  -0.245061
   4.453125	  -0.344116
   4.462891	  -0.302386
   4.472656	  -0.095188
   4.482422	   0.252299
   4.492188	   0.664516
   4.501953	   1.032388
   4.511719	   1.244315
   4.521484	   1.222560
   4.531250	   0.953232
   4.541016	   0.498812
   4.550781	  -0.013019
   4.560547	  -0.423119
   4.570312	  -0.588221
   4.580078	  -0.427532
   4.589844	   0.046749
   4.599609	   0.726184
   4.609375	   1.433086
   4.619141	   1.970950
   4.628906	   2.183412
   4.638672	   2.003242
   4.648438	   1.475244
   4.658203	   0.744785
   4.667969	   0.014587
   4.677734	  -0.517093
   4.687500	  -0.717346
   4.697266	  -0.558815
   4.707031	  -0.125907
   4.716797	   0.415292
   4.726562	   0.873647
   4.736328	   1.097427
   4.746094	   1.024939
   4.755859	   0.704143
   4.765625	   0.274340
   4.775391	  -0.084093
   4.785156	  -0.214909
   4.794922	  -0.043668
   4.804688	   0.392410
   4.814453	   0.953517
   4.824219	   1.443156
   4.833984	   1.676009
   4.843750	   1.544935
   4.853516	   1.064030
   4.863281	   0.372238
   4.873047	  -0.304862
   4.882812	  -0.723345
   4.892578	  -0.697163
   4.902344	  -0.157126
   4.912109	   0.826984
   4.921875	   2.068530
   4.931641	   3.322820
   4.941406	   4.362596
   4.951172	   5.044619
   4.960938	   5.344966
   4.970703	   5.351723
   4.980469	   5.218877
   4.990234	   5.099121
   5.000000	   5.081041
   5.009766	   5.154784
   5.019531	   5.220137
   5.029297	   5.135267
   5.039062	   4.788625
   5.048828	   4.166495
   5.058594	   3.388109
   5.068359	   2.690113
   5.078125	   2.359371
   5.087891	   2.632235
   5.097656	   3.592707
   5.107422	   5.106139
   5.117188	   6.817062
   5.126953	   8.221098
   5.136719	   8.797283
   5.146484	   8.165881
   5.156250	   6.225000
   5.166016	   3.221500
   5.175781	  -0.271995
   5.185547	  -3.476058
   5.195312	  -5.592941
   5.205078	  -6.016008
   5.214844	  -4.502580
   5.224609	  -1.260226
   5.234375	   3.081168
   5.244141	   7.608282
   5.253906	  11.340131
   5.263672	  13.464903
   5.273438	  13.535658
   5.283203	  11.573457
   5.292969	   8.051472
   5.302734	   3.765666
   5.312500	  -0.372318
   5.322266	  -3.564500
   5.332031	  -5.318137
   5.341797	  -5.551276
   5.351562	  -4.588180
   5.361328	  -3.050088
   5.371094	  -1.673577
   5.380859	  -1.105834
   5.390625	  -1.729519
   5.400391	  -3.559603
   5.410156	  -6.234256
   5.419922	  -9.097592
   5.429688	 -11.350301
   5.439453	 -12.230195
   5.449219	 -11.181068
   5.458984	  -7.974630
   5.468750	  -2.763841
   5.478516	   3.937599
   5.488281	  11.339777
   5.498047	  18.504684
   5.507812	  24.492830
   5.517578	  28.503996
   5.527344	  29.992317
   5.537109	  28.742187
   5.546875	  24.897759
   5.556641	  18.944241
   5.566406	  11.643738
   5.576172	   3.932607
   5.585938	  -3.208381
   5.595703	  -8.895260
   5.605469	 -12.473765
   5.615234	 -13.622357
   5.625000	 -12.405442
   5.634766	  -9.262961
   5.644531	  -4.932972
   5.654297	  -0.316996
   5.664062	   3.688907
   5.673828	   6.364724
   5.683594	   7.302882
   5.693359	   6.479662
   5.703125	   4.243868
   5.712891	   1.223462
   5.722656	  -1.829381
   5.732422	  -4.218532
   5.742188	  -5.465631
   5.751953	  -5.412865
   5.761719	  -4.240571
   5.771484	  -2.395233
   5.781250	  -0.447435
   5.791016	   1.081064
   5.800781	   1.872367
   5.810547	   1.904607
   5.820312	   1.452997
   5.830078	   0.997251
   5.839844	   1.060553
   5.849609	   2.026939
   5.859375	   3.992825
   5.869141	   6.700961
   5.878906	   9.582547
   5.888672	  11.901292
   5.898438	  12.961064
   5.908203	  12.316209
   5.917969	   9.918429
   5.927734	   6.149241
   5.937500	   1.719435
   5.947266	  -2.542067
   5.957031	  -5.950097
   5.966797	  -8.194304
   5.976562	  -9.460039
   5.986328	 -10.387547
   5.996094	 -11.865034
   6.005859	 -14.704668
   6.015625	 -19.294188
   6.025391	 -25.336041
   6.035156	 -31.772113
   6.044922	 -36.946307
   6.054688	 -38.989975
   6.064453	 -36.345186
   6.074219	 -28.288738
   6.083984	 -15.303177
   6.093750	   0.831835
   6.103516	  17.287809
   6.113281	  30.745250
   6.123047	  38.141616
   6.132812	  37.427453
   6.142578	  28.132638
   6.152344	  11.582683
   6.162109	  -9.310501
   6.171875	 -30.649364
   6.181641	 -48.403927
   6.191406	 -59.307380
   6.201172	 -61.568186
   6.210938	 -55.218181
   6.220703	 -42.011443
   6.230469	 -24.908227
   6.240234	  -7.288831
   6.250000	   7.887268
   6.259766	  18.751329
   6.269531	  24.851389
   6.279297	  27.062223
   6.289062	  27.126553
   6.298828	  26.978702
   6.308594	  28.060140
   6.318359	  30.832512
   6.328125	  34.629618
   6.337891	  37.885035
   6.347656	  38.658096
   6.357422	  35.291784
   6.367188	  26.998142
   6.376953	  14.190729
   6.386719	  -1.538189
   6.396484	 -17.789905
   6.406250	 -31.969882
   6.416016	 -41.954919
   6.425781	 -46.620131
   6.435547	 -46.073598
   6.445312	 -41.536663
   6.455078	 -34.915549
   6.464844	 -28.202236
   6.474609	 -22.891395
   6.484375	 -19.591104
   6.494141	 -17.941364
   6.503906	 -16.856191
   6.513672	 -15.002846
   6.523438	 -11.357187
   6.533203	  -5.650285
   6.542969	   1.444387
   6.552734	   8.452072
   6.562500	  13.530841
   6.572266	  15.068816
   6.582031	  12.258978
   6.591797	   5.466804
   6.601562	  -3.736357
   6.611328	 -12.903538
   6.621094	 -19.326562
   6.630859	 -20.767721
   6.640625	 -16.102130
   6.650391	  -5.684421
   6.660156	   8.671785
   6.669922	  24.105226
   6.679688	  37.402962
   6.689453	  45.794517
   6.699219	  47.630221
   6.708984	  42.762471
   6.718750	  32.531762
   6.728516	  19.368945
   6.738281	   6.129789
   6.748047	  -4.651668
   6.757812	 -11.387512
   6.767578	 -13.774464
   6.777344	 -12.766936
   6.787109	 -10.208370
   6.796875	  -8.237610
   6.806641	  -8.643928
   6.816406	 -12.350551
   6.826172	 -19.162278
   6.835938	 -27.832893
   6.845703	 -36.416656
   6.855469	 -42.791878
   6.865234	 -45.204263
   6.875000	 -42.683006
   6.884766	 -35.229325
   6.894531	 -23.749048
   6.904297	  -9.775452
   6.914062	   4.916710
   6.923828	  18.685130
   6.933594	  30.279675
   6.943359	  38.934670
   6.953125	  44.302101
   6.962891	  46.287617
   6.972656	  44.879360
   6.982422	  40.053873
   6.992188	  31.806586
   7.001953	  20.299938
   7.011719	   6.069266
   7.021484	  -9.806019
   7.031250	 -25.658490
   7.041016	 -39.374496
   7.050781	 -48.722030
   7.060547	 -51.801005
   7.070312	 -47.503509
   7.080078	 -35.854943
   7.089844	 -18.129559
   7.099609	   3.309317
   7.109375	  25.419401
   7.119141	  45.044840
   7.128906	  59.497848
   7.138672	  67.013875
   7.148438	  66.975662
   7.158203	  59.869956
   7.167969	  47.018068
   7.177734	  30.183537
   7.187500	  11.187206
   7.197266	  -8.356373
   7.207031	 -27.121448
   7.216797	 -43.985924
   7.226562	 -57.859114
   7.236328	 -67.539684
   7.246094	 -71.713215
   7.255859	 -69.146704
   7.265625	 -59.056923
   7.275391	 -41.548030
   7.285156	 -17.960404
   7.294922	   9.030105
   7.304688	  35.668882
   7.314453	  57.741676
   7.324219	  71.445575
   7.333984	  74.303711
   7.343750	  65.871268
   7.353516	  48.008977
   7.363281	  24.600186
   7.373047	   0.734674
   7.382812	 -18.464067
   7.392578	 -29.076935
   7.402344	 -29.363291
   7.412109	 -20.195881
   7.421875	  -4.817897
   7.431641	  12.033293
   7.441406	  25.412386
   7.451172	  31.516662
   7.460938	  28.727089
   7.470703	  18.044125
   7.480469	   2.786916
   7.490234	 -12.369116
   7.500000	 -22.751810
   7.509766	 -25.066819
   7.519531	 -18.394732
   7.529297	  -4.520242
   7.539062	  12.510594
   7.548828	  27.490282
   7.558594	  35.503865
   7.568359	  33.330157
   7.578125	  20.394784
   7.587891	  -0.996768
   7.597656	 -26.216781
   7.607422	 -49.513073
   7.617188	 -65.517859
   7.626953	 -70.653252
   7.636719	 -64.050229
   7.646484	 -47.735785
   7.656250	 -26.047474
   7.666016	  -4.447112
   7.675781	  11.933560
   7.685547	  19.616943
   7.695312	  17.620981
   7.705078	   7.607103
   7.714844	  -6.681006
   7.724609	 -20.510787
   7.734375	 -29.472176
   7.744141	 -30.646872
   7.753906	 -23.329578
   7.763672	  -9.130095
   7.773438	   8.540276
   7.783203	  25.429984
   7.792969	  37.578026
   7.802734	  42.307289
   7.812500	  38.828891
   7.822266	  28.325074
   7.832031	  13.524762
   7.841797	  -2.081752
   7.851562	 -15.158720
   7.861328	 -23.324771
   7.871094	 -25.639950
   7.880859	 -22.680814
   7.890625	 -16.219831
   7.900391	  -8.626516
   7.910156	  -2.169636
   7.919922	   1.590068
   7.929688	   2.166481
   7.939453	   0.197812
   7.949219	  -2.810341
   7.958984	  -4.962069
   7.968750	  -4.533538
   7.978516	  -0.474296
   7.988281	   7.274698
   7.998047	  17.717647
   8.007812	  29.003138
   8.017578	  38.833265
   8.027344	  44.984728
   8.037109	  45.822328
   8.046875	  40.690126
   8.056641	  30.094136
   8.066406	  15.636147
   8.076172	  -0.288488
   8.085938	 -14.965968
   8.095703	 -25.911678
   8.105469	 -31.373322
   8.115234	 -30.680645
